# Temperatura_=_20.0
# Concentracion g/m^3_=_7400.0
# C_Vs_to_Am_M_A/Vsm_=_116720831517.84952
# pendiente_HvsI_1/m_=_3716.3
# ordenada_HvsI_A/m_=_1297.0
# frecuencia_Hz_=_136115.92729784915

Tiempo_(s)	Campo_(V.s)	Magnetizacion_(V.s)	Campo_(kA/m)	Magnetizacion_(A/m)
0.000000e+00	-7.117440e-06	-1.682213e-09	-3.842222e+01	-1.937393e+02
1.000000e-08	-7.117641e-06	-1.680275e-09	-3.842330e+01	-1.937757e+02
2.000000e-08	-7.117477e-06	-1.680084e-09	-3.842242e+01	-1.938033e+02
3.000000e-08	-7.116816e-06	-1.678535e-09	-3.841885e+01	-1.938221e+02
4.000000e-08	-7.115460e-06	-1.676579e-09	-3.841153e+01	-1.938321e+02
5.000000e-08	-7.113276e-06	-1.675425e-09	-3.839974e+01	-1.938336e+02
6.000000e-08	-7.110423e-06	-1.675633e-09	-3.838434e+01	-1.938265e+02
7.000000e-08	-7.107012e-06	-1.678495e-09	-3.836593e+01	-1.938109e+02
8.000000e-08	-7.103126e-06	-1.684991e-09	-3.834495e+01	-1.937869e+02
9.000000e-08	-7.098613e-06	-1.679266e-09	-3.832058e+01	-1.937547e+02
1.000000e-07	-7.093406e-06	-1.641228e-09	-3.829247e+01	-1.937141e+02
1.100000e-07	-7.087581e-06	-1.620642e-09	-3.826103e+01	-1.936654e+02
1.200000e-07	-7.081561e-06	-1.689918e-09	-3.822853e+01	-1.936087e+02
1.300000e-07	-7.075492e-06	-1.745710e-09	-3.819577e+01	-1.935440e+02
1.400000e-07	-7.068778e-06	-1.662645e-09	-3.815952e+01	-1.934714e+02
1.500000e-07	-7.061322e-06	-1.585517e-09	-3.811928e+01	-1.933911e+02
1.600000e-07	-7.053558e-06	-1.678472e-09	-3.807736e+01	-1.933033e+02
1.700000e-07	-7.045533e-06	-1.756272e-09	-3.803404e+01	-1.932079e+02
1.800000e-07	-7.036952e-06	-1.626993e-09	-3.798772e+01	-1.931053e+02
1.900000e-07	-7.027565e-06	-1.537672e-09	-3.793705e+01	-1.929956e+02
2.000000e-07	-7.017547e-06	-1.687569e-09	-3.788297e+01	-1.928790e+02
2.100000e-07	-7.007172e-06	-1.781104e-09	-3.782695e+01	-1.927556e+02
2.200000e-07	-6.996236e-06	-1.624262e-09	-3.776792e+01	-1.926257e+02
2.300000e-07	-6.984488e-06	-1.540070e-09	-3.770450e+01	-1.924894e+02
2.400000e-07	-6.972140e-06	-1.675884e-09	-3.763784e+01	-1.923469e+02
2.500000e-07	-6.959327e-06	-1.714301e-09	-3.756867e+01	-1.921986e+02
2.600000e-07	-6.945840e-06	-1.590099e-09	-3.749587e+01	-1.920444e+02
2.700000e-07	-6.931805e-06	-1.597253e-09	-3.742010e+01	-1.918847e+02
2.800000e-07	-6.917069e-06	-1.698965e-09	-3.734055e+01	-1.917196e+02
2.900000e-07	-6.901487e-06	-1.648673e-09	-3.725643e+01	-1.915493e+02
3.000000e-07	-6.885246e-06	-1.578462e-09	-3.716876e+01	-1.913739e+02
3.100000e-07	-6.868480e-06	-1.646806e-09	-3.707825e+01	-1.911936e+02
3.200000e-07	-6.851386e-06	-1.654671e-09	-3.698597e+01	-1.910083e+02
3.300000e-07	-6.833907e-06	-1.564103e-09	-3.689162e+01	-1.908183e+02
3.400000e-07	-6.816092e-06	-1.611963e-09	-3.679545e+01	-1.906236e+02
3.500000e-07	-6.797913e-06	-1.699184e-09	-3.669731e+01	-1.904242e+02
3.600000e-07	-6.779102e-06	-1.602512e-09	-3.659576e+01	-1.902200e+02
3.700000e-07	-6.759732e-06	-1.529420e-09	-3.649119e+01	-1.900111e+02
3.800000e-07	-6.740017e-06	-1.634936e-09	-3.638477e+01	-1.897973e+02
3.900000e-07	-6.720034e-06	-1.656199e-09	-3.627690e+01	-1.895787e+02
4.000000e-07	-6.699616e-06	-1.552418e-09	-3.616667e+01	-1.893550e+02
4.100000e-07	-6.678632e-06	-1.577670e-09	-3.605339e+01	-1.891262e+02
4.200000e-07	-6.657055e-06	-1.652505e-09	-3.593691e+01	-1.888921e+02
4.300000e-07	-6.634967e-06	-1.591849e-09	-3.581768e+01	-1.886525e+02
4.400000e-07	-6.612563e-06	-1.555613e-09	-3.569673e+01	-1.884074e+02
4.500000e-07	-6.589864e-06	-1.612216e-09	-3.557420e+01	-1.881564e+02
4.600000e-07	-6.566666e-06	-1.589038e-09	-3.544896e+01	-1.878994e+02
4.700000e-07	-6.543003e-06	-1.544150e-09	-3.532123e+01	-1.876362e+02
4.800000e-07	-6.519087e-06	-1.598722e-09	-3.519212e+01	-1.873668e+02
4.900000e-07	-6.494606e-06	-1.608151e-09	-3.505996e+01	-1.870908e+02
5.000000e-07	-6.469445e-06	-1.538779e-09	-3.492413e+01	-1.868082e+02
5.100000e-07	-6.443712e-06	-1.550246e-09	-3.478522e+01	-1.865189e+02
5.200000e-07	-6.417292e-06	-1.589604e-09	-3.464260e+01	-1.862227e+02
5.300000e-07	-6.390172e-06	-1.549568e-09	-3.449619e+01	-1.859196e+02
5.400000e-07	-6.362564e-06	-1.534227e-09	-3.434716e+01	-1.856095e+02
5.500000e-07	-6.334673e-06	-1.568938e-09	-3.419659e+01	-1.852924e+02
5.600000e-07	-6.306518e-06	-1.554136e-09	-3.404460e+01	-1.849683e+02
5.700000e-07	-6.277908e-06	-1.530850e-09	-3.389015e+01	-1.846372e+02
5.800000e-07	-6.248799e-06	-1.549960e-09	-3.373302e+01	-1.842991e+02
5.900000e-07	-6.219435e-06	-1.544395e-09	-3.357450e+01	-1.839541e+02
6.000000e-07	-6.189670e-06	-1.520399e-09	-3.341382e+01	-1.836022e+02
6.100000e-07	-6.159328e-06	-1.533181e-09	-3.325002e+01	-1.832436e+02
6.200000e-07	-6.128536e-06	-1.540495e-09	-3.308380e+01	-1.828783e+02
6.300000e-07	-6.097418e-06	-1.521052e-09	-3.291581e+01	-1.825064e+02
6.400000e-07	-6.065961e-06	-1.517415e-09	-3.274600e+01	-1.821279e+02
6.500000e-07	-6.034171e-06	-1.519442e-09	-3.257439e+01	-1.817430e+02
6.600000e-07	-6.002062e-06	-1.507463e-09	-3.240105e+01	-1.813516e+02
6.700000e-07	-5.969550e-06	-1.505388e-09	-3.222554e+01	-1.809538e+02
6.800000e-07	-5.936428e-06	-1.509424e-09	-3.204674e+01	-1.805495e+02
6.900000e-07	-5.902570e-06	-1.500482e-09	-3.186396e+01	-1.801388e+02
7.000000e-07	-5.868028e-06	-1.492081e-09	-3.167749e+01	-1.797215e+02
7.100000e-07	-5.832888e-06	-1.490334e-09	-3.148780e+01	-1.792974e+02
7.200000e-07	-5.797395e-06	-1.484839e-09	-3.129619e+01	-1.788665e+02
7.300000e-07	-5.761659e-06	-1.479814e-09	-3.110328e+01	-1.784284e+02
7.400000e-07	-5.725675e-06	-1.476922e-09	-3.090902e+01	-1.779829e+02
7.500000e-07	-5.689358e-06	-1.471923e-09	-3.071297e+01	-1.775297e+02
7.600000e-07	-5.652690e-06	-1.469066e-09	-3.051503e+01	-1.770685e+02
7.700000e-07	-5.615586e-06	-1.467694e-09	-3.031473e+01	-1.765987e+02
7.800000e-07	-5.578000e-06	-1.460760e-09	-3.011183e+01	-1.761200e+02
7.900000e-07	-5.540030e-06	-1.451689e-09	-2.990686e+01	-1.756318e+02
8.000000e-07	-5.501577e-06	-1.446622e-09	-2.969927e+01	-1.751338e+02
8.100000e-07	-5.462660e-06	-1.443150e-09	-2.948919e+01	-1.746253e+02
8.200000e-07	-5.423430e-06	-1.439476e-09	-2.927741e+01	-1.741059e+02
8.300000e-07	-5.383923e-06	-1.434528e-09	-2.906414e+01	-1.735750e+02
8.400000e-07	-5.344149e-06	-1.427389e-09	-2.884942e+01	-1.730321e+02
8.500000e-07	-5.304191e-06	-1.421483e-09	-2.863372e+01	-1.724766e+02
8.600000e-07	-5.263850e-06	-1.418183e-09	-2.841595e+01	-1.719082e+02
8.700000e-07	-5.222925e-06	-1.413425e-09	-2.819502e+01	-1.713263e+02
8.800000e-07	-5.181535e-06	-1.405476e-09	-2.797159e+01	-1.707306e+02
8.900000e-07	-5.139613e-06	-1.396637e-09	-2.774528e+01	-1.701208e+02
9.000000e-07	-5.097135e-06	-1.390240e-09	-2.751597e+01	-1.694965e+02
9.100000e-07	-5.054142e-06	-1.385353e-09	-2.728387e+01	-1.688575e+02
9.200000e-07	-5.010686e-06	-1.379608e-09	-2.704929e+01	-1.682037e+02
9.300000e-07	-4.966957e-06	-1.372845e-09	-2.681322e+01	-1.675350e+02
9.400000e-07	-4.923087e-06	-1.366802e-09	-2.657640e+01	-1.668514e+02
9.500000e-07	-4.878995e-06	-1.362603e-09	-2.633838e+01	-1.661530e+02
9.600000e-07	-4.834512e-06	-1.358292e-09	-2.609824e+01	-1.654399e+02
9.700000e-07	-4.789718e-06	-1.352085e-09	-2.585643e+01	-1.647124e+02
9.800000e-07	-4.744607e-06	-1.343661e-09	-2.561291e+01	-1.639706e+02
9.900000e-07	-4.699060e-06	-1.335550e-09	-2.536703e+01	-1.632150e+02
1.000000e-06	-4.653182e-06	-1.330396e-09	-2.511937e+01	-1.624460e+02
1.010000e-06	-4.607016e-06	-1.326071e-09	-2.487015e+01	-1.616639e+02
1.020000e-06	-4.560550e-06	-1.320299e-09	-2.461931e+01	-1.608693e+02
1.030000e-06	-4.513504e-06	-1.312812e-09	-2.436534e+01	-1.600626e+02
1.040000e-06	-4.466107e-06	-1.304721e-09	-2.410948e+01	-1.592443e+02
1.050000e-06	-4.418683e-06	-1.298246e-09	-2.385347e+01	-1.584150e+02
1.060000e-06	-4.370901e-06	-1.292498e-09	-2.359552e+01	-1.575750e+02
1.070000e-06	-4.322935e-06	-1.286019e-09	-2.333659e+01	-1.567249e+02
1.080000e-06	-4.274914e-06	-1.278911e-09	-2.307736e+01	-1.558651e+02
1.090000e-06	-4.226590e-06	-1.272011e-09	-2.281649e+01	-1.549959e+02
1.100000e-06	-4.177810e-06	-1.265832e-09	-2.255315e+01	-1.541176e+02
1.110000e-06	-4.128646e-06	-1.259016e-09	-2.228775e+01	-1.532306e+02
1.120000e-06	-4.079101e-06	-1.250469e-09	-2.202029e+01	-1.523348e+02
1.130000e-06	-4.028972e-06	-1.241854e-09	-2.174968e+01	-1.514306e+02
1.140000e-06	-3.978272e-06	-1.234828e-09	-2.147599e+01	-1.505177e+02
1.150000e-06	-3.927214e-06	-1.228953e-09	-2.120036e+01	-1.495963e+02
1.160000e-06	-3.875850e-06	-1.222182e-09	-2.092308e+01	-1.486660e+02
1.170000e-06	-3.824124e-06	-1.213212e-09	-2.064385e+01	-1.477267e+02
1.180000e-06	-3.772124e-06	-1.203860e-09	-2.036313e+01	-1.467781e+02
1.190000e-06	-3.719952e-06	-1.196089e-09	-2.008149e+01	-1.458197e+02
1.200000e-06	-3.667416e-06	-1.189747e-09	-1.979788e+01	-1.448511e+02
1.210000e-06	-3.614482e-06	-1.182281e-09	-1.951213e+01	-1.438718e+02
1.220000e-06	-3.561289e-06	-1.172914e-09	-1.922498e+01	-1.428811e+02
1.230000e-06	-3.507860e-06	-1.164154e-09	-1.893655e+01	-1.418786e+02
1.240000e-06	-3.454142e-06	-1.155525e-09	-1.864656e+01	-1.408636e+02
1.250000e-06	-3.400295e-06	-1.146352e-09	-1.835588e+01	-1.398355e+02
1.260000e-06	-3.346365e-06	-1.137176e-09	-1.806475e+01	-1.387936e+02
1.270000e-06	-3.292102e-06	-1.127488e-09	-1.777182e+01	-1.377373e+02
1.280000e-06	-3.237572e-06	-1.118986e-09	-1.747745e+01	-1.366662e+02
1.290000e-06	-3.182790e-06	-1.113196e-09	-1.718172e+01	-1.355795e+02
1.300000e-06	-3.127835e-06	-1.106148e-09	-1.688506e+01	-1.344770e+02
1.310000e-06	-3.072757e-06	-1.094153e-09	-1.658772e+01	-1.333580e+02
1.320000e-06	-3.017484e-06	-1.081327e-09	-1.628935e+01	-1.322223e+02
1.330000e-06	-2.962018e-06	-1.071416e-09	-1.598992e+01	-1.310697e+02
1.340000e-06	-2.906354e-06	-1.062386e-09	-1.568943e+01	-1.298998e+02
1.350000e-06	-2.850562e-06	-1.052628e-09	-1.538825e+01	-1.287126e+02
1.360000e-06	-2.794696e-06	-1.043035e-09	-1.508666e+01	-1.275081e+02
1.370000e-06	-2.738710e-06	-1.033507e-09	-1.478443e+01	-1.262861e+02
1.380000e-06	-2.682567e-06	-1.024023e-09	-1.448135e+01	-1.250469e+02
1.390000e-06	-2.626294e-06	-1.014594e-09	-1.417757e+01	-1.237906e+02
1.400000e-06	-2.569800e-06	-1.004154e-09	-1.387260e+01	-1.225173e+02
1.410000e-06	-2.513045e-06	-9.928734e-10	-1.356622e+01	-1.212273e+02
1.420000e-06	-2.456120e-06	-9.823625e-10	-1.325892e+01	-1.199208e+02
1.430000e-06	-2.398935e-06	-9.733409e-10	-1.295022e+01	-1.185981e+02
1.440000e-06	-2.341395e-06	-9.635266e-10	-1.263960e+01	-1.172593e+02
1.450000e-06	-2.283615e-06	-9.517097e-10	-1.232768e+01	-1.159047e+02
1.460000e-06	-2.225560e-06	-9.389937e-10	-1.201429e+01	-1.145343e+02
1.470000e-06	-2.167118e-06	-9.266153e-10	-1.169880e+01	-1.131484e+02
1.480000e-06	-2.108324e-06	-9.155935e-10	-1.138141e+01	-1.117467e+02
1.490000e-06	-2.049341e-06	-9.053307e-10	-1.106300e+01	-1.103292e+02
1.500000e-06	-1.990251e-06	-8.941701e-10	-1.074401e+01	-1.088956e+02
1.510000e-06	-1.930982e-06	-8.817559e-10	-1.042406e+01	-1.074456e+02
1.520000e-06	-1.871492e-06	-8.696129e-10	-1.010291e+01	-1.059785e+02
1.530000e-06	-1.811871e-06	-8.579718e-10	-9.781058e+00	-1.044937e+02
1.540000e-06	-1.752242e-06	-8.457284e-10	-9.459164e+00	-1.029902e+02
1.550000e-06	-1.692605e-06	-8.323842e-10	-9.137222e+00	-1.014670e+02
1.560000e-06	-1.632899e-06	-8.185466e-10	-8.814912e+00	-9.992295e+01
1.570000e-06	-1.573120e-06	-8.061432e-10	-8.492206e+00	-9.835658e+01
1.580000e-06	-1.513319e-06	-7.943992e-10	-8.169381e+00	-9.676637e+01
1.590000e-06	-1.453450e-06	-7.809072e-10	-7.846186e+00	-9.515061e+01
1.600000e-06	-1.393497e-06	-7.663323e-10	-7.522542e+00	-9.350746e+01
1.610000e-06	-1.333491e-06	-7.526461e-10	-7.198609e+00	-9.183497e+01
1.620000e-06	-1.273415e-06	-7.391170e-10	-6.874303e+00	-9.013106e+01
1.630000e-06	-1.213224e-06	-7.242027e-10	-6.549374e+00	-8.839362e+01
1.640000e-06	-1.152907e-06	-7.090565e-10	-6.223761e+00	-8.662046e+01
1.650000e-06	-1.092554e-06	-6.948230e-10	-5.897957e+00	-8.480936e+01
1.660000e-06	-1.032183e-06	-6.816193e-10	-5.572054e+00	-8.295814e+01
1.670000e-06	-9.717923e-07	-6.683254e-10	-5.246046e+00	-8.106464e+01
1.680000e-06	-9.114149e-07	-6.523589e-10	-4.920109e+00	-7.912677e+01
1.690000e-06	-8.509384e-07	-6.343982e-10	-4.593638e+00	-7.714256e+01
1.700000e-06	-7.902839e-07	-6.180759e-10	-4.266206e+00	-7.511017e+01
1.710000e-06	-7.296090e-07	-6.032190e-10	-3.938663e+00	-7.302793e+01
1.720000e-06	-6.689230e-07	-5.872738e-10	-3.611060e+00	-7.089436e+01
1.730000e-06	-6.080824e-07	-5.699906e-10	-3.282623e+00	-6.870824e+01
1.740000e-06	-5.471934e-07	-5.529104e-10	-2.953925e+00	-6.646859e+01
1.750000e-06	-4.863343e-07	-5.362952e-10	-2.625388e+00	-6.417469e+01
1.760000e-06	-4.254211e-07	-5.187079e-10	-2.296559e+00	-6.182616e+01
1.770000e-06	-3.644043e-07	-4.988323e-10	-1.967171e+00	-5.942291e+01
1.780000e-06	-3.033792e-07	-4.776952e-10	-1.637738e+00	-5.696518e+01
1.790000e-06	-2.424784e-07	-4.566252e-10	-1.308976e+00	-5.445359e+01
1.800000e-06	-1.815900e-07	-4.353644e-10	-9.802812e-01	-5.188905e+01
1.810000e-06	-1.205601e-07	-4.142089e-10	-6.508218e-01	-4.927286e+01
1.820000e-06	-5.937525e-08	-3.918709e-10	-3.205266e-01	-4.660664e+01
1.830000e-06	1.780843e-09	-3.669902e-10	9.613562e-03	-4.389235e+01
1.840000e-06	6.277673e-08	-3.417446e-10	3.388889e-01	-4.113228e+01
1.850000e-06	1.240044e-07	-3.180945e-10	6.694153e-01	-3.832902e+01
1.860000e-06	1.854029e-07	-2.945413e-10	1.000864e+00	-3.548545e+01
1.870000e-06	2.465834e-07	-2.698449e-10	1.331136e+00	-3.260470e+01
1.880000e-06	3.077067e-07	-2.447698e-10	1.661099e+00	-2.969016e+01
1.890000e-06	3.688456e-07	-2.196393e-10	1.991146e+00	-2.674539e+01
1.900000e-06	4.299102e-07	-1.947821e-10	2.320793e+00	-2.377417e+01
1.910000e-06	4.908754e-07	-1.698507e-10	2.649903e+00	-2.078038e+01
1.920000e-06	5.518199e-07	-1.439565e-10	2.978900e+00	-1.776803e+01
1.930000e-06	6.127470e-07	-1.179719e-10	3.307804e+00	-1.474118e+01
1.940000e-06	6.736352e-07	-9.202413e-11	3.636498e+00	-1.170396e+01
1.950000e-06	7.343784e-07	-6.537594e-11	3.964410e+00	-8.660456e+00
1.960000e-06	7.949809e-07	-3.789053e-11	4.291561e+00	-5.614747e+00
1.970000e-06	8.556638e-07	-1.027613e-11	4.619147e+00	-2.570830e+00
1.980000e-06	9.163018e-07	1.610291e-11	4.946490e+00	4.673994e-01
1.990000e-06	9.767603e-07	4.130757e-11	5.272865e+00	3.496175e+00
2.000000e-06	1.037079e-06	6.597262e-11	5.598483e+00	6.511894e+00
2.010000e-06	1.097397e-06	9.080130e-11	5.924100e+00	9.511136e+00
2.020000e-06	1.157775e-06	1.167119e-10	6.250042e+00	1.249069e+01
2.030000e-06	1.218018e-06	1.428942e-10	6.575250e+00	1.544757e+01
2.040000e-06	1.278096e-06	1.674175e-10	6.899570e+00	1.837902e+01
2.050000e-06	1.338096e-06	1.909402e-10	7.223471e+00	2.128257e+01
2.060000e-06	1.398032e-06	2.149153e-10	7.547023e+00	2.415598e+01
2.070000e-06	1.457934e-06	2.383128e-10	7.870393e+00	2.699728e+01
2.080000e-06	1.517739e-06	2.608411e-10	8.193241e+00	2.980480e+01
2.090000e-06	1.577450e-06	2.825423e-10	8.515579e+00	3.257709e+01
2.100000e-06	1.637141e-06	3.038196e-10	8.837809e+00	3.531300e+01
2.110000e-06	1.696771e-06	3.266719e-10	9.159714e+00	3.801162e+01
2.120000e-06	1.756384e-06	3.500253e-10	9.481523e+00	4.067231e+01
2.130000e-06	1.815985e-06	3.718783e-10	9.803269e+00	4.329462e+01
2.140000e-06	1.875458e-06	3.917818e-10	1.012432e+01	4.587835e+01
2.150000e-06	1.934768e-06	4.109730e-10	1.044450e+01	4.842351e+01
2.160000e-06	1.994068e-06	4.306723e-10	1.076462e+01	5.093028e+01
2.170000e-06	2.053282e-06	4.505801e-10	1.108427e+01	5.339900e+01
2.180000e-06	2.112234e-06	4.708524e-10	1.140251e+01	5.583019e+01
2.190000e-06	2.170965e-06	4.903233e-10	1.171956e+01	5.822447e+01
2.200000e-06	2.229407e-06	5.086597e-10	1.203505e+01	6.058257e+01
2.210000e-06	2.287515e-06	5.275523e-10	1.234874e+01	6.290534e+01
2.220000e-06	2.345360e-06	5.463811e-10	1.266100e+01	6.519365e+01
2.230000e-06	2.402835e-06	5.632184e-10	1.297127e+01	6.744846e+01
2.240000e-06	2.459857e-06	5.800015e-10	1.327910e+01	6.967076e+01
2.250000e-06	2.516685e-06	5.984838e-10	1.358587e+01	7.186154e+01
2.260000e-06	2.573264e-06	6.162826e-10	1.389130e+01	7.402180e+01
2.270000e-06	2.629688e-06	6.327682e-10	1.419590e+01	7.615253e+01
2.280000e-06	2.686037e-06	6.483779e-10	1.450009e+01	7.825468e+01
2.290000e-06	2.742061e-06	6.628009e-10	1.480252e+01	8.032919e+01
2.300000e-06	2.797894e-06	6.778913e-10	1.510393e+01	8.237691e+01
2.310000e-06	2.853639e-06	6.952186e-10	1.540486e+01	8.439868e+01
2.320000e-06	2.909311e-06	7.131706e-10	1.570539e+01	8.639525e+01
2.330000e-06	2.964865e-06	7.301096e-10	1.600529e+01	8.836730e+01
2.340000e-06	3.020262e-06	7.457383e-10	1.630434e+01	9.031546e+01
2.350000e-06	3.075508e-06	7.600596e-10	1.660258e+01	9.224027e+01
2.360000e-06	3.130583e-06	7.732352e-10	1.689989e+01	9.414219e+01
2.370000e-06	3.185329e-06	7.853806e-10	1.719542e+01	9.602162e+01
2.380000e-06	3.239673e-06	7.970277e-10	1.748879e+01	9.787887e+01
2.390000e-06	3.293731e-06	8.109259e-10	1.778061e+01	9.971418e+01
2.400000e-06	3.347631e-06	8.280830e-10	1.807158e+01	1.015277e+02
2.410000e-06	3.401400e-06	8.447224e-10	1.836184e+01	1.033196e+02
2.420000e-06	3.454987e-06	8.595424e-10	1.865112e+01	1.050899e+02
2.430000e-06	3.508339e-06	8.737916e-10	1.893914e+01	1.068386e+02
2.440000e-06	3.561462e-06	8.880133e-10	1.922591e+01	1.085656e+02
2.450000e-06	3.614267e-06	9.017217e-10	1.951097e+01	1.102708e+02
2.460000e-06	3.666692e-06	9.144615e-10	1.979398e+01	1.119541e+02
2.470000e-06	3.718899e-06	9.270077e-10	2.007581e+01	1.136153e+02
2.480000e-06	3.770914e-06	9.395111e-10	2.035660e+01	1.152541e+02
2.490000e-06	3.822675e-06	9.525549e-10	2.063602e+01	1.168703e+02
2.500000e-06	3.874070e-06	9.658994e-10	2.091347e+01	1.184638e+02
2.510000e-06	3.925162e-06	9.788798e-10	2.118928e+01	1.200342e+02
2.520000e-06	3.975920e-06	9.913796e-10	2.146329e+01	1.215813e+02
2.530000e-06	4.026319e-06	1.003292e-09	2.173536e+01	1.231048e+02
2.540000e-06	4.076220e-06	1.014916e-09	2.200474e+01	1.246045e+02
2.550000e-06	4.125407e-06	1.025646e-09	2.227027e+01	1.260802e+02
2.560000e-06	4.174126e-06	1.035752e-09	2.253327e+01	1.275316e+02
2.570000e-06	4.222574e-06	1.045229e-09	2.279481e+01	1.289587e+02
2.580000e-06	4.270656e-06	1.055380e-09	2.305437e+01	1.303612e+02
2.590000e-06	4.318496e-06	1.068267e-09	2.331262e+01	1.317390e+02
2.600000e-06	4.366226e-06	1.081844e-09	2.357029e+01	1.330920e+02
2.610000e-06	4.413746e-06	1.093289e-09	2.382681e+01	1.344203e+02
2.620000e-06	4.461084e-06	1.102964e-09	2.408236e+01	1.357238e+02
2.630000e-06	4.507982e-06	1.112521e-09	2.433553e+01	1.370027e+02
2.640000e-06	4.554386e-06	1.122355e-09	2.458603e+01	1.382569e+02
2.650000e-06	4.600334e-06	1.132332e-09	2.483408e+01	1.394867e+02
2.660000e-06	4.645965e-06	1.141868e-09	2.508041e+01	1.406924e+02
2.670000e-06	4.691528e-06	1.149988e-09	2.532637e+01	1.418740e+02
2.680000e-06	4.736829e-06	1.158043e-09	2.557092e+01	1.430321e+02
2.690000e-06	4.781740e-06	1.167380e-09	2.581336e+01	1.441668e+02
2.700000e-06	4.826229e-06	1.175611e-09	2.605353e+01	1.452787e+02
2.710000e-06	4.870425e-06	1.182879e-09	2.629212e+01	1.463682e+02
2.720000e-06	4.914444e-06	1.191704e-09	2.652974e+01	1.474358e+02
2.730000e-06	4.958253e-06	1.201519e-09	2.676624e+01	1.484819e+02
2.740000e-06	5.001876e-06	1.211431e-09	2.700173e+01	1.495073e+02
2.750000e-06	5.045270e-06	1.220247e-09	2.723598e+01	1.505123e+02
2.760000e-06	5.088381e-06	1.227923e-09	2.746871e+01	1.514977e+02
2.770000e-06	5.130963e-06	1.235664e-09	2.769858e+01	1.524641e+02
2.780000e-06	5.172835e-06	1.244434e-09	2.792462e+01	1.534120e+02
2.790000e-06	5.213984e-06	1.253904e-09	2.814675e+01	1.543422e+02
2.800000e-06	5.254479e-06	1.262479e-09	2.836536e+01	1.552552e+02
2.810000e-06	5.294635e-06	1.269720e-09	2.858213e+01	1.561518e+02
2.820000e-06	5.334533e-06	1.276492e-09	2.879752e+01	1.570324e+02
2.830000e-06	5.374171e-06	1.283928e-09	2.901150e+01	1.578977e+02
2.840000e-06	5.413623e-06	1.291655e-09	2.922447e+01	1.587483e+02
2.850000e-06	5.452747e-06	1.298625e-09	2.943567e+01	1.595847e+02
2.860000e-06	5.491408e-06	1.304772e-09	2.964438e+01	1.604074e+02
2.870000e-06	5.529653e-06	1.311367e-09	2.985083e+01	1.612169e+02
2.880000e-06	5.567547e-06	1.319071e-09	3.005540e+01	1.620136e+02
2.890000e-06	5.605078e-06	1.326527e-09	3.025800e+01	1.627979e+02
2.900000e-06	5.642127e-06	1.332512e-09	3.045801e+01	1.635702e+02
