# Temperatura_=_20.0
# Concentracion g/m^3_=_7400.0
# C_Vs_to_Am_M_A/Vsm_=_116720831517.84952
# pendiente_HvsI_1/m_=_3716.3
# ordenada_HvsI_A/m_=_1297.0
# frecuencia_Hz_=_136108.540778365

Tiempo_(s)	Campo_(V.s)	Magnetizacion_(V.s)	Campo_(kA/m)	Magnetizacion_(A/m)
0.000000e+00	-7.091799e-06	-1.475507e-09	-3.843130e+01	-1.706603e+02
1.000000e-08	-7.091925e-06	-1.476180e-09	-3.843198e+01	-1.706713e+02
2.000000e-08	-7.091755e-06	-1.475859e-09	-3.843106e+01	-1.706744e+02
3.000000e-08	-7.091118e-06	-1.474217e-09	-3.842761e+01	-1.706695e+02
4.000000e-08	-7.089747e-06	-1.473008e-09	-3.842018e+01	-1.706568e+02
5.000000e-08	-7.087504e-06	-1.473787e-09	-3.840802e+01	-1.706363e+02
6.000000e-08	-7.084543e-06	-1.475645e-09	-3.839198e+01	-1.706081e+02
7.000000e-08	-7.081125e-06	-1.479687e-09	-3.837346e+01	-1.705724e+02
8.000000e-08	-7.077348e-06	-1.486274e-09	-3.835299e+01	-1.705292e+02
9.000000e-08	-7.072978e-06	-1.465164e-09	-3.832930e+01	-1.704788e+02
1.000000e-07	-7.067697e-06	-1.411328e-09	-3.830068e+01	-1.704214e+02
1.100000e-07	-7.061805e-06	-1.427442e-09	-3.826876e+01	-1.703571e+02
1.200000e-07	-7.055851e-06	-1.536798e-09	-3.823649e+01	-1.702862e+02
1.300000e-07	-7.049779e-06	-1.540324e-09	-3.820359e+01	-1.702090e+02
1.400000e-07	-7.043022e-06	-1.402709e-09	-3.816697e+01	-1.701258e+02
1.500000e-07	-7.035464e-06	-1.389488e-09	-3.812601e+01	-1.700369e+02
1.600000e-07	-7.027697e-06	-1.545704e-09	-3.808392e+01	-1.699426e+02
1.700000e-07	-7.019774e-06	-1.538738e-09	-3.804098e+01	-1.698433e+02
1.800000e-07	-7.011235e-06	-1.338035e-09	-3.799471e+01	-1.697393e+02
1.900000e-07	-7.001796e-06	-1.354154e-09	-3.794356e+01	-1.696310e+02
2.000000e-07	-6.991686e-06	-1.578130e-09	-3.788877e+01	-1.695187e+02
2.100000e-07	-6.981242e-06	-1.557521e-09	-3.783217e+01	-1.694028e+02
2.200000e-07	-6.970076e-06	-1.339964e-09	-3.777166e+01	-1.692836e+02
2.300000e-07	-6.958174e-06	-1.370785e-09	-3.770717e+01	-1.691614e+02
2.400000e-07	-6.945917e-06	-1.541827e-09	-3.764075e+01	-1.690365e+02
2.500000e-07	-6.933198e-06	-1.473042e-09	-3.757182e+01	-1.689091e+02
2.600000e-07	-6.919765e-06	-1.351606e-09	-3.749903e+01	-1.687794e+02
2.700000e-07	-6.905768e-06	-1.454186e-09	-3.742318e+01	-1.686477e+02
2.800000e-07	-6.891286e-06	-1.517689e-09	-3.734469e+01	-1.685140e+02
2.900000e-07	-6.875894e-06	-1.398290e-09	-3.726129e+01	-1.683784e+02
3.000000e-07	-6.859587e-06	-1.394403e-09	-3.717292e+01	-1.682409e+02
3.100000e-07	-6.842877e-06	-1.491830e-09	-3.708236e+01	-1.681014e+02
3.200000e-07	-6.825859e-06	-1.417109e-09	-3.699014e+01	-1.679599e+02
3.300000e-07	-6.808442e-06	-1.351965e-09	-3.689575e+01	-1.678163e+02
3.400000e-07	-6.790637e-06	-1.486397e-09	-3.679927e+01	-1.676702e+02
3.500000e-07	-6.772283e-06	-1.505843e-09	-3.669980e+01	-1.675216e+02
3.600000e-07	-6.753302e-06	-1.342153e-09	-3.659694e+01	-1.673700e+02
3.700000e-07	-6.733881e-06	-1.365165e-09	-3.649170e+01	-1.672152e+02
3.800000e-07	-6.714287e-06	-1.499889e-09	-3.638551e+01	-1.670568e+02
3.900000e-07	-6.694470e-06	-1.424327e-09	-3.627813e+01	-1.668944e+02
4.000000e-07	-6.674083e-06	-1.339435e-09	-3.616765e+01	-1.667276e+02
4.100000e-07	-6.653099e-06	-1.441753e-09	-3.605393e+01	-1.665559e+02
4.200000e-07	-6.631677e-06	-1.463584e-09	-3.593784e+01	-1.663790e+02
4.300000e-07	-6.609812e-06	-1.367447e-09	-3.581935e+01	-1.661964e+02
4.400000e-07	-6.587388e-06	-1.394903e-09	-3.569783e+01	-1.660078e+02
4.500000e-07	-6.564358e-06	-1.438952e-09	-3.557303e+01	-1.658127e+02
4.600000e-07	-6.540949e-06	-1.370017e-09	-3.544617e+01	-1.656107e+02
4.700000e-07	-6.517339e-06	-1.374660e-09	-3.531823e+01	-1.654016e+02
4.800000e-07	-6.493544e-06	-1.444028e-09	-3.518928e+01	-1.651851e+02
4.900000e-07	-6.469294e-06	-1.396783e-09	-3.505787e+01	-1.649609e+02
5.000000e-07	-6.444305e-06	-1.347699e-09	-3.492245e+01	-1.647289e+02
5.100000e-07	-6.418466e-06	-1.398196e-09	-3.478243e+01	-1.644888e+02
5.200000e-07	-6.391905e-06	-1.402249e-09	-3.463849e+01	-1.642407e+02
5.300000e-07	-6.364837e-06	-1.357922e-09	-3.449180e+01	-1.639845e+02
5.400000e-07	-6.337358e-06	-1.376133e-09	-3.434289e+01	-1.637203e+02
5.500000e-07	-6.309577e-06	-1.390952e-09	-3.419234e+01	-1.634481e+02
5.600000e-07	-6.281554e-06	-1.363195e-09	-3.404048e+01	-1.631681e+02
5.700000e-07	-6.253120e-06	-1.364953e-09	-3.388640e+01	-1.628804e+02
5.800000e-07	-6.224159e-06	-1.373400e-09	-3.372946e+01	-1.625852e+02
5.900000e-07	-6.194731e-06	-1.353893e-09	-3.356998e+01	-1.622828e+02
6.000000e-07	-6.164949e-06	-1.353580e-09	-3.340859e+01	-1.619735e+02
6.100000e-07	-6.134758e-06	-1.365368e-09	-3.324498e+01	-1.616576e+02
6.200000e-07	-6.103932e-06	-1.356374e-09	-3.307793e+01	-1.613353e+02
6.300000e-07	-6.072628e-06	-1.349853e-09	-3.290829e+01	-1.610068e+02
6.400000e-07	-6.041144e-06	-1.347930e-09	-3.273767e+01	-1.606726e+02
6.500000e-07	-6.009524e-06	-1.337445e-09	-3.256632e+01	-1.603329e+02
6.600000e-07	-5.977683e-06	-1.336939e-09	-3.239377e+01	-1.599878e+02
6.700000e-07	-5.945487e-06	-1.340405e-09	-3.221930e+01	-1.596375e+02
6.800000e-07	-5.912651e-06	-1.332014e-09	-3.204135e+01	-1.592823e+02
6.900000e-07	-5.878822e-06	-1.328486e-09	-3.185803e+01	-1.589221e+02
7.000000e-07	-5.844172e-06	-1.327397e-09	-3.167026e+01	-1.585572e+02
7.100000e-07	-5.809041e-06	-1.317179e-09	-3.147988e+01	-1.581873e+02
7.200000e-07	-5.773537e-06	-1.314067e-09	-3.128748e+01	-1.578125e+02
7.300000e-07	-5.737881e-06	-1.317121e-09	-3.109426e+01	-1.574326e+02
7.400000e-07	-5.702106e-06	-1.308919e-09	-3.090039e+01	-1.570474e+02
7.500000e-07	-5.665941e-06	-1.303532e-09	-3.070440e+01	-1.566567e+02
7.600000e-07	-5.629319e-06	-1.306088e-09	-3.050595e+01	-1.562601e+02
7.700000e-07	-5.592197e-06	-1.300381e-09	-3.030478e+01	-1.558573e+02
7.800000e-07	-5.554614e-06	-1.290789e-09	-3.010111e+01	-1.554480e+02
7.900000e-07	-5.516863e-06	-1.287063e-09	-2.989653e+01	-1.550316e+02
8.000000e-07	-5.478651e-06	-1.283019e-09	-2.968946e+01	-1.546077e+02
8.100000e-07	-5.439799e-06	-1.278618e-09	-2.947892e+01	-1.541758e+02
8.200000e-07	-5.400570e-06	-1.276138e-09	-2.926633e+01	-1.537355e+02
8.300000e-07	-5.361067e-06	-1.270276e-09	-2.905226e+01	-1.532862e+02
8.400000e-07	-5.321372e-06	-1.262189e-09	-2.883714e+01	-1.528276e+02
8.500000e-07	-5.281557e-06	-1.257768e-09	-2.862138e+01	-1.523590e+02
8.600000e-07	-5.241421e-06	-1.255154e-09	-2.840388e+01	-1.518802e+02
8.700000e-07	-5.200778e-06	-1.250648e-09	-2.818363e+01	-1.513908e+02
8.800000e-07	-5.159773e-06	-1.244253e-09	-2.796142e+01	-1.508904e+02
8.900000e-07	-5.118240e-06	-1.236735e-09	-2.773635e+01	-1.503787e+02
9.000000e-07	-5.075891e-06	-1.230235e-09	-2.750685e+01	-1.498555e+02
9.100000e-07	-5.032881e-06	-1.225056e-09	-2.727378e+01	-1.493207e+02
9.200000e-07	-4.989493e-06	-1.218962e-09	-2.703865e+01	-1.487742e+02
9.300000e-07	-4.945888e-06	-1.213014e-09	-2.680235e+01	-1.482160e+02
9.400000e-07	-4.902081e-06	-1.208209e-09	-2.656495e+01	-1.476460e+02
9.500000e-07	-4.858126e-06	-1.202607e-09	-2.632676e+01	-1.470646e+02
9.600000e-07	-4.813964e-06	-1.197183e-09	-2.608744e+01	-1.464717e+02
9.700000e-07	-4.769446e-06	-1.190814e-09	-2.584619e+01	-1.458677e+02
9.800000e-07	-4.724472e-06	-1.183286e-09	-2.560247e+01	-1.452527e+02
9.900000e-07	-4.679082e-06	-1.176728e-09	-2.535650e+01	-1.446273e+02
1.000000e-06	-4.633479e-06	-1.171927e-09	-2.510937e+01	-1.439915e+02
1.010000e-06	-4.587570e-06	-1.166926e-09	-2.486058e+01	-1.433459e+02
1.020000e-06	-4.541217e-06	-1.160451e-09	-2.460939e+01	-1.426908e+02
1.030000e-06	-4.494515e-06	-1.153798e-09	-2.435631e+01	-1.420266e+02
1.040000e-06	-4.447521e-06	-1.147778e-09	-2.410164e+01	-1.413535e+02
1.050000e-06	-4.400187e-06	-1.142673e-09	-2.384513e+01	-1.406720e+02
1.060000e-06	-4.352570e-06	-1.137605e-09	-2.358709e+01	-1.399822e+02
1.070000e-06	-4.304833e-06	-1.131999e-09	-2.332840e+01	-1.392846e+02
1.080000e-06	-4.256839e-06	-1.125621e-09	-2.306832e+01	-1.385791e+02
1.090000e-06	-4.208577e-06	-1.118495e-09	-2.280678e+01	-1.378659e+02
1.100000e-06	-4.160033e-06	-1.111364e-09	-2.254371e+01	-1.371451e+02
1.110000e-06	-4.110951e-06	-1.104371e-09	-2.227773e+01	-1.364166e+02
1.120000e-06	-4.061203e-06	-1.097384e-09	-2.200814e+01	-1.356802e+02
1.130000e-06	-4.010854e-06	-1.090501e-09	-2.173529e+01	-1.349358e+02
1.140000e-06	-3.960148e-06	-1.085190e-09	-2.146051e+01	-1.341831e+02
1.150000e-06	-3.909101e-06	-1.080162e-09	-2.118388e+01	-1.334217e+02
1.160000e-06	-3.857739e-06	-1.073407e-09	-2.090555e+01	-1.326511e+02
1.170000e-06	-3.806127e-06	-1.066112e-09	-2.062586e+01	-1.318709e+02
1.180000e-06	-3.754303e-06	-1.059059e-09	-2.034501e+01	-1.310804e+02
1.190000e-06	-3.702311e-06	-1.052070e-09	-2.006326e+01	-1.302789e+02
1.200000e-06	-3.650089e-06	-1.044728e-09	-1.978026e+01	-1.294660e+02
1.210000e-06	-3.597550e-06	-1.037271e-09	-1.949555e+01	-1.286407e+02
1.220000e-06	-3.544630e-06	-1.029935e-09	-1.920877e+01	-1.278024e+02
1.230000e-06	-3.491313e-06	-1.022566e-09	-1.891984e+01	-1.269503e+02
1.240000e-06	-3.437779e-06	-1.014946e-09	-1.862973e+01	-1.260838e+02
1.250000e-06	-3.384063e-06	-1.008026e-09	-1.833864e+01	-1.252022e+02
1.260000e-06	-3.330126e-06	-1.000974e-09	-1.804634e+01	-1.243047e+02
1.270000e-06	-3.276134e-06	-9.917574e-10	-1.775376e+01	-1.233908e+02
1.280000e-06	-3.221736e-06	-9.828925e-10	-1.745897e+01	-1.224599e+02
1.290000e-06	-3.166983e-06	-9.757246e-10	-1.716225e+01	-1.215116e+02
1.300000e-06	-3.112199e-06	-9.675251e-10	-1.686537e+01	-1.205455e+02
1.310000e-06	-3.057173e-06	-9.577611e-10	-1.656718e+01	-1.195612e+02
1.320000e-06	-3.001917e-06	-9.486258e-10	-1.626774e+01	-1.185586e+02
1.330000e-06	-2.946463e-06	-9.404036e-10	-1.596723e+01	-1.175375e+02
1.340000e-06	-2.890785e-06	-9.318851e-10	-1.566550e+01	-1.164980e+02
1.350000e-06	-2.835059e-06	-9.236378e-10	-1.536352e+01	-1.154400e+02
1.360000e-06	-2.779319e-06	-9.157171e-10	-1.506146e+01	-1.143638e+02
1.370000e-06	-2.723536e-06	-9.075748e-10	-1.475916e+01	-1.132695e+02
1.380000e-06	-2.667723e-06	-8.993300e-10	-1.445671e+01	-1.121576e+02
1.390000e-06	-2.611782e-06	-8.907843e-10	-1.415355e+01	-1.110284e+02
1.400000e-06	-2.555636e-06	-8.813310e-10	-1.384929e+01	-1.098823e+02
1.410000e-06	-2.499318e-06	-8.708328e-10	-1.354410e+01	-1.087198e+02
1.420000e-06	-2.442824e-06	-8.607964e-10	-1.323795e+01	-1.075413e+02
1.430000e-06	-2.385965e-06	-8.514021e-10	-1.292983e+01	-1.063474e+02
1.440000e-06	-2.328575e-06	-8.413801e-10	-1.261882e+01	-1.051384e+02
1.450000e-06	-2.270869e-06	-8.309422e-10	-1.230611e+01	-1.039149e+02
1.460000e-06	-2.212963e-06	-8.197194e-10	-1.199231e+01	-1.026771e+02
1.470000e-06	-2.154778e-06	-8.079329e-10	-1.167700e+01	-1.014254e+02
1.480000e-06	-2.096179e-06	-7.972205e-10	-1.135944e+01	-1.001600e+02
1.490000e-06	-2.037173e-06	-7.869449e-10	-1.103968e+01	-9.888094e+01
1.500000e-06	-1.978024e-06	-7.759537e-10	-1.071915e+01	-9.758820e+01
1.510000e-06	-1.918675e-06	-7.646081e-10	-1.039753e+01	-9.628162e+01
1.520000e-06	-1.859250e-06	-7.540146e-10	-1.007550e+01	-9.496088e+01
1.530000e-06	-1.799863e-06	-7.439655e-10	-9.753672e+00	-9.362552e+01
1.540000e-06	-1.740417e-06	-7.326999e-10	-9.431526e+00	-9.227492e+01
1.550000e-06	-1.680978e-06	-7.208846e-10	-9.109418e+00	-9.090828e+01
1.560000e-06	-1.621461e-06	-7.099145e-10	-8.786889e+00	-8.952464e+01
1.570000e-06	-1.561764e-06	-6.991166e-10	-8.463386e+00	-8.812291e+01
1.580000e-06	-1.502024e-06	-6.875761e-10	-8.139646e+00	-8.670183e+01
1.590000e-06	-1.442307e-06	-6.750122e-10	-7.816034e+00	-8.525999e+01
1.600000e-06	-1.382584e-06	-6.619118e-10	-7.492385e+00	-8.379587e+01
1.610000e-06	-1.322769e-06	-6.493364e-10	-7.168241e+00	-8.230783e+01
1.620000e-06	-1.262865e-06	-6.370057e-10	-6.843615e+00	-8.079413e+01
1.630000e-06	-1.202935e-06	-6.241815e-10	-6.518848e+00	-7.925298e+01
1.640000e-06	-1.142842e-06	-6.111671e-10	-6.193199e+00	-7.768250e+01
1.650000e-06	-1.082678e-06	-5.979561e-10	-5.867162e+00	-7.608084e+01
1.660000e-06	-1.022455e-06	-5.851937e-10	-5.540803e+00	-7.444609e+01
1.670000e-06	-9.621443e-07	-5.733182e-10	-5.213974e+00	-7.277643e+01
1.680000e-06	-9.018060e-07	-5.594872e-10	-4.886994e+00	-7.107003e+01
1.690000e-06	-8.414827e-07	-5.433197e-10	-4.560094e+00	-6.932520e+01
1.700000e-06	-7.811370e-07	-5.287030e-10	-4.233074e+00	-6.754033e+01
1.710000e-06	-7.206101e-07	-5.158502e-10	-3.905072e+00	-6.571394e+01
1.720000e-06	-6.600313e-07	-5.023241e-10	-3.576787e+00	-6.384474e+01
1.730000e-06	-5.994309e-07	-4.878588e-10	-3.248387e+00	-6.193160e+01
1.740000e-06	-5.387558e-07	-4.733591e-10	-2.919581e+00	-5.997359e+01
1.750000e-06	-4.780060e-07	-4.583911e-10	-2.590371e+00	-5.797004e+01
1.760000e-06	-4.171171e-07	-4.423203e-10	-2.260407e+00	-5.592049e+01
1.770000e-06	-3.562545e-07	-4.254463e-10	-1.930585e+00	-5.382475e+01
1.780000e-06	-2.954431e-07	-4.078480e-10	-1.601041e+00	-5.168288e+01
1.790000e-06	-2.345584e-07	-3.896702e-10	-1.271100e+00	-4.949524e+01
1.800000e-06	-1.737195e-07	-3.713185e-10	-9.414064e-01	-4.726245e+01
1.810000e-06	-1.128889e-07	-3.531369e-10	-6.117581e-01	-4.498541e+01
1.820000e-06	-5.205174e-08	-3.347192e-10	-2.820745e-01	-4.266529e+01
1.830000e-06	8.609628e-09	-3.149424e-10	4.665659e-02	-4.030354e+01
1.840000e-06	6.932003e-08	-2.944391e-10	3.756534e-01	-3.790186e+01
1.850000e-06	1.302397e-07	-2.753263e-10	7.057843e-01	-3.546221e+01
1.860000e-06	1.910707e-07	-2.561474e-10	1.035435e+00	-3.298677e+01
1.870000e-06	2.517700e-07	-2.356614e-10	1.364371e+00	-3.047794e+01
1.880000e-06	3.124987e-07	-2.142409e-10	1.693467e+00	-2.793832e+01
1.890000e-06	3.732532e-07	-1.921559e-10	2.022703e+00	-2.537067e+01
1.900000e-06	4.340409e-07	-1.706251e-10	2.352119e+00	-2.277790e+01
1.910000e-06	4.947743e-07	-1.493047e-10	2.681241e+00	-2.016306e+01
1.920000e-06	5.553415e-07	-1.284591e-10	3.009461e+00	-1.752927e+01
1.930000e-06	6.158997e-07	-1.083248e-10	3.337634e+00	-1.487976e+01
1.940000e-06	6.764285e-07	-8.742572e-11	3.665646e+00	-1.221776e+01
1.950000e-06	7.368831e-07	-6.545699e-11	3.993257e+00	-9.546550e+00
1.960000e-06	7.974575e-07	-4.267191e-11	4.321517e+00	-6.869388e+00
1.970000e-06	8.579574e-07	-1.925734e-11	4.649372e+00	-4.189501e+00
1.980000e-06	9.182597e-07	2.656864e-12	4.976158e+00	-1.510057e+00
1.990000e-06	9.784918e-07	2.271610e-11	5.302563e+00	1.165855e+00
2.000000e-06	1.038703e-06	4.304292e-11	5.628853e+00	3.835248e+00
2.010000e-06	1.098926e-06	6.350587e-11	5.955209e+00	6.495258e+00
2.020000e-06	1.159040e-06	8.392388e-11	6.280977e+00	9.143159e+00
2.030000e-06	1.219096e-06	1.049278e-10	6.606426e+00	1.177638e+01
2.040000e-06	1.279076e-06	1.258768e-10	6.931463e+00	1.439250e+01
2.050000e-06	1.338890e-06	1.466247e-10	7.255604e+00	1.698930e+01
2.060000e-06	1.398663e-06	1.675515e-10	7.579520e+00	1.956474e+01
2.070000e-06	1.458460e-06	1.885256e-10	7.903567e+00	2.211695e+01
2.080000e-06	1.518204e-06	2.078349e-10	8.227327e+00	2.464428e+01
2.090000e-06	1.577847e-06	2.262478e-10	8.550540e+00	2.714526e+01
2.100000e-06	1.637403e-06	2.459052e-10	8.873279e+00	2.961861e+01
2.110000e-06	1.696919e-06	2.663527e-10	9.195802e+00	3.206326e+01
2.120000e-06	1.756370e-06	2.858239e-10	9.517975e+00	3.447830e+01
2.130000e-06	1.815733e-06	3.041786e-10	9.839672e+00	3.686302e+01
2.140000e-06	1.875003e-06	3.221983e-10	1.016086e+01	3.921688e+01
2.150000e-06	1.934186e-06	3.402164e-10	1.048158e+01	4.153949e+01
2.160000e-06	1.993314e-06	3.586797e-10	1.080201e+01	4.383062e+01
2.170000e-06	2.052265e-06	3.764129e-10	1.112146e+01	4.609018e+01
2.180000e-06	2.110906e-06	3.932962e-10	1.143925e+01	4.831821e+01
2.190000e-06	2.169258e-06	4.109827e-10	1.175546e+01	5.051485e+01
2.200000e-06	2.227143e-06	4.289450e-10	1.206915e+01	5.268036e+01
2.210000e-06	2.284548e-06	4.458978e-10	1.238023e+01	5.481507e+01
2.220000e-06	2.341661e-06	4.617448e-10	1.268974e+01	5.691941e+01
2.230000e-06	2.398711e-06	4.765566e-10	1.299890e+01	5.899386e+01
2.240000e-06	2.455651e-06	4.927317e-10	1.330747e+01	6.103893e+01
2.250000e-06	2.512290e-06	5.103971e-10	1.361439e+01	6.305520e+01
2.260000e-06	2.568612e-06	5.268024e-10	1.391961e+01	6.504326e+01
2.270000e-06	2.624652e-06	5.414943e-10	1.422330e+01	6.700371e+01
2.280000e-06	2.680600e-06	5.556204e-10	1.452649e+01	6.893716e+01
2.290000e-06	2.736448e-06	5.699633e-10	1.482914e+01	7.084422e+01
2.300000e-06	2.792158e-06	5.844746e-10	1.513103e+01	7.272548e+01
2.310000e-06	2.847786e-06	5.998163e-10	1.543249e+01	7.458150e+01
2.320000e-06	2.903281e-06	6.158470e-10	1.573322e+01	7.641284e+01
2.330000e-06	2.958616e-06	6.321545e-10	1.603309e+01	7.822000e+01
2.340000e-06	3.013719e-06	6.480299e-10	1.633170e+01	8.000345e+01
2.350000e-06	3.068671e-06	6.619545e-10	1.662949e+01	8.176363e+01
2.360000e-06	3.123464e-06	6.726432e-10	1.692642e+01	8.350092e+01
2.370000e-06	3.177913e-06	6.821396e-10	1.722149e+01	8.521566e+01
2.380000e-06	3.232229e-06	6.935972e-10	1.751583e+01	8.690815e+01
2.390000e-06	3.286336e-06	7.073006e-10	1.780905e+01	8.857863e+01
2.400000e-06	3.340147e-06	7.227425e-10	1.810065e+01	9.022731e+01
2.410000e-06	3.393828e-06	7.377378e-10	1.839156e+01	9.185434e+01
2.420000e-06	3.447275e-06	7.511127e-10	1.868119e+01	9.345983e+01
2.430000e-06	3.500421e-06	7.636189e-10	1.896920e+01	9.504387e+01
2.440000e-06	3.553373e-06	7.758620e-10	1.925615e+01	9.660647e+01
2.450000e-06	3.606052e-06	7.886193e-10	1.954162e+01	9.814766e+01
2.460000e-06	3.658411e-06	8.011454e-10	1.982536e+01	9.966739e+01
2.470000e-06	3.710569e-06	8.134053e-10	2.010801e+01	1.011656e+02
2.480000e-06	3.762390e-06	8.263637e-10	2.038884e+01	1.026423e+02
2.490000e-06	3.813883e-06	8.381371e-10	2.066788e+01	1.040973e+02
2.500000e-06	3.865160e-06	8.484091e-10	2.094576e+01	1.055305e+02
2.510000e-06	3.915941e-06	8.584078e-10	2.122095e+01	1.069419e+02
2.520000e-06	3.966110e-06	8.688958e-10	2.149282e+01	1.083313e+02
2.530000e-06	4.015884e-06	8.805024e-10	2.176255e+01	1.096986e+02
2.540000e-06	4.065289e-06	8.922085e-10	2.203028e+01	1.110438e+02
2.550000e-06	4.114213e-06	9.025548e-10	2.229541e+01	1.123666e+02
2.560000e-06	4.162689e-06	9.117655e-10	2.255810e+01	1.136672e+02
2.570000e-06	4.210784e-06	9.205171e-10	2.281874e+01	1.149453e+02
2.580000e-06	4.258630e-06	9.297673e-10	2.307802e+01	1.162011e+02
2.590000e-06	4.306356e-06	9.395938e-10	2.333665e+01	1.174344e+02
2.600000e-06	4.353992e-06	9.496742e-10	2.359480e+01	1.186453e+02
2.610000e-06	4.401524e-06	9.602236e-10	2.385238e+01	1.198339e+02
2.620000e-06	4.448568e-06	9.700985e-10	2.410732e+01	1.210002e+02
2.630000e-06	4.495071e-06	9.789127e-10	2.435932e+01	1.221443e+02
2.640000e-06	4.541367e-06	9.867699e-10	2.461020e+01	1.232664e+02
2.650000e-06	4.587347e-06	9.943118e-10	2.485938e+01	1.243667e+02
2.660000e-06	4.632978e-06	1.001672e-09	2.510665e+01	1.254453e+02
2.670000e-06	4.678391e-06	1.008423e-09	2.535275e+01	1.265026e+02
2.680000e-06	4.723446e-06	1.015983e-09	2.559691e+01	1.275387e+02
2.690000e-06	4.768109e-06	1.024485e-09	2.583895e+01	1.285539e+02
2.700000e-06	4.812549e-06	1.031994e-09	2.607977e+01	1.295487e+02
2.710000e-06	4.856712e-06	1.039080e-09	2.631909e+01	1.305232e+02
2.720000e-06	4.900632e-06	1.047683e-09	2.655711e+01	1.314778e+02
2.730000e-06	4.944373e-06	1.057069e-09	2.679414e+01	1.324129e+02
2.740000e-06	4.987939e-06	1.065699e-09	2.703023e+01	1.333290e+02
2.750000e-06	5.031245e-06	1.072949e-09	2.726491e+01	1.342263e+02
2.760000e-06	5.074150e-06	1.079924e-09	2.749742e+01	1.351052e+02
2.770000e-06	5.116377e-06	1.087612e-09	2.772625e+01	1.359663e+02
2.780000e-06	5.157792e-06	1.095564e-09	2.795068e+01	1.368098e+02
2.790000e-06	5.198670e-06	1.102556e-09	2.817221e+01	1.376361e+02
2.800000e-06	5.239112e-06	1.108296e-09	2.839137e+01	1.384457e+02
2.810000e-06	5.279142e-06	1.115261e-09	2.860829e+01	1.392389e+02
2.820000e-06	5.318879e-06	1.123683e-09	2.882364e+01	1.400160e+02
2.830000e-06	5.358441e-06	1.131745e-09	2.903803e+01	1.407776e+02
2.840000e-06	5.397726e-06	1.138309e-09	2.925091e+01	1.415239e+02
2.850000e-06	5.436719e-06	1.143827e-09	2.946222e+01	1.422552e+02
2.860000e-06	5.475246e-06	1.149622e-09	2.967101e+01	1.429719e+02
2.870000e-06	5.513236e-06	1.155612e-09	2.987688e+01	1.436743e+02
2.880000e-06	5.550908e-06	1.161862e-09	3.008103e+01	1.443627e+02
2.890000e-06	5.588129e-06	1.168082e-09	3.028273e+01	1.450374e+02
2.900000e-06	5.624901e-06	1.173989e-09	3.048200e+01	1.456988e+02
