# Temperatura_=_20.0
# Concentracion g/m^3_=_7400.0
# C_Vs_to_Am_M_A/Vsm_=_116720831517.84952
# pendiente_HvsI_1/m_=_3716.3
# ordenada_HvsI_A/m_=_1297.0
# frecuencia_Hz_=_136110.0280495278

Tiempo_(s)	Campo_(V.s)	Magnetizacion_(V.s)	Campo_(kA/m)	Magnetizacion_(A/m)
0.000000e+00	-7.107949e-06	-1.455373e-09	-3.842561e+01	-1.676167e+02
1.000000e-08	-7.107723e-06	-1.454896e-09	-3.842439e+01	-1.675837e+02
2.000000e-08	-7.107359e-06	-1.455707e-09	-3.842242e+01	-1.675423e+02
3.000000e-08	-7.106653e-06	-1.457201e-09	-3.841860e+01	-1.674929e+02
4.000000e-08	-7.105141e-06	-1.456638e-09	-3.841043e+01	-1.674362e+02
5.000000e-08	-7.102749e-06	-1.453975e-09	-3.839750e+01	-1.673727e+02
6.000000e-08	-7.099761e-06	-1.451212e-09	-3.838134e+01	-1.673031e+02
7.000000e-08	-7.096254e-06	-1.445801e-09	-3.836239e+01	-1.672278e+02
8.000000e-08	-7.092120e-06	-1.441148e-09	-3.834004e+01	-1.671475e+02
9.000000e-08	-7.087278e-06	-1.454127e-09	-3.831386e+01	-1.670627e+02
1.000000e-07	-7.081887e-06	-1.463828e-09	-3.828472e+01	-1.669740e+02
1.100000e-07	-7.076137e-06	-1.423034e-09	-3.825363e+01	-1.668817e+02
1.200000e-07	-7.070027e-06	-1.400827e-09	-3.822060e+01	-1.667865e+02
1.300000e-07	-7.063553e-06	-1.474660e-09	-3.818560e+01	-1.666888e+02
1.400000e-07	-7.056727e-06	-1.504131e-09	-3.814870e+01	-1.665888e+02
1.500000e-07	-7.049399e-06	-1.401867e-09	-3.810909e+01	-1.664870e+02
1.600000e-07	-7.041569e-06	-1.363352e-09	-3.806676e+01	-1.663837e+02
1.700000e-07	-7.033264e-06	-1.489527e-09	-3.802186e+01	-1.662791e+02
1.800000e-07	-7.024317e-06	-1.520788e-09	-3.797349e+01	-1.661735e+02
1.900000e-07	-7.014855e-06	-1.361051e-09	-3.792234e+01	-1.660670e+02
2.000000e-07	-7.004844e-06	-1.340532e-09	-3.786822e+01	-1.659597e+02
2.100000e-07	-6.994093e-06	-1.513934e-09	-3.781010e+01	-1.658516e+02
2.200000e-07	-6.982950e-06	-1.511416e-09	-3.774986e+01	-1.657428e+02
2.300000e-07	-6.971198e-06	-1.336968e-09	-3.768633e+01	-1.656333e+02
2.400000e-07	-6.958780e-06	-1.363631e-09	-3.761920e+01	-1.655230e+02
2.500000e-07	-6.945832e-06	-1.508901e-09	-3.754921e+01	-1.654118e+02
2.600000e-07	-6.932198e-06	-1.439646e-09	-3.747550e+01	-1.652994e+02
2.700000e-07	-6.917897e-06	-1.326859e-09	-3.739818e+01	-1.651858e+02
2.800000e-07	-6.902895e-06	-1.422454e-09	-3.731709e+01	-1.650708e+02
2.900000e-07	-6.887244e-06	-1.475415e-09	-3.723248e+01	-1.649540e+02
3.000000e-07	-6.871157e-06	-1.359611e-09	-3.714551e+01	-1.648353e+02
3.100000e-07	-6.854526e-06	-1.368834e-09	-3.705560e+01	-1.647143e+02
3.200000e-07	-6.837253e-06	-1.475505e-09	-3.696222e+01	-1.645908e+02
3.300000e-07	-6.819571e-06	-1.393699e-09	-3.686663e+01	-1.644645e+02
3.400000e-07	-6.801557e-06	-1.310863e-09	-3.676925e+01	-1.643350e+02
3.500000e-07	-6.783138e-06	-1.438199e-09	-3.666968e+01	-1.642022e+02
3.600000e-07	-6.764225e-06	-1.466865e-09	-3.656743e+01	-1.640656e+02
3.700000e-07	-6.744851e-06	-1.314955e-09	-3.646270e+01	-1.639249e+02
3.800000e-07	-6.725016e-06	-1.338039e-09	-3.635547e+01	-1.637800e+02
3.900000e-07	-6.704739e-06	-1.462936e-09	-3.624585e+01	-1.636306e+02
4.000000e-07	-6.684092e-06	-1.383292e-09	-3.613424e+01	-1.634763e+02
4.100000e-07	-6.662977e-06	-1.306774e-09	-3.602009e+01	-1.633169e+02
4.200000e-07	-6.641290e-06	-1.408571e-09	-3.590285e+01	-1.631522e+02
4.300000e-07	-6.619159e-06	-1.415527e-09	-3.578321e+01	-1.629820e+02
4.400000e-07	-6.596542e-06	-1.321161e-09	-3.566094e+01	-1.628062e+02
4.500000e-07	-6.573572e-06	-1.368667e-09	-3.553676e+01	-1.626244e+02
4.600000e-07	-6.550336e-06	-1.415209e-09	-3.541115e+01	-1.624366e+02
4.700000e-07	-6.526711e-06	-1.331532e-09	-3.528343e+01	-1.622426e+02
4.800000e-07	-6.502584e-06	-1.332901e-09	-3.515300e+01	-1.620423e+02
4.900000e-07	-6.478006e-06	-1.408286e-09	-3.502013e+01	-1.618355e+02
5.000000e-07	-6.452809e-06	-1.361826e-09	-3.488392e+01	-1.616222e+02
5.100000e-07	-6.426799e-06	-1.314600e-09	-3.474331e+01	-1.614023e+02
5.200000e-07	-6.400188e-06	-1.369409e-09	-3.459945e+01	-1.611755e+02
5.300000e-07	-6.373054e-06	-1.367642e-09	-3.445276e+01	-1.609419e+02
5.400000e-07	-6.345423e-06	-1.317782e-09	-3.430339e+01	-1.607014e+02
5.500000e-07	-6.317516e-06	-1.343517e-09	-3.415253e+01	-1.604539e+02
5.600000e-07	-6.289300e-06	-1.361107e-09	-3.399999e+01	-1.601992e+02
5.700000e-07	-6.260639e-06	-1.324961e-09	-3.384505e+01	-1.599373e+02
5.800000e-07	-6.231549e-06	-1.329377e-09	-3.368779e+01	-1.596681e+02
5.900000e-07	-6.202009e-06	-1.349203e-09	-3.352809e+01	-1.593915e+02
6.000000e-07	-6.172101e-06	-1.326482e-09	-3.336641e+01	-1.591073e+02
6.100000e-07	-6.141844e-06	-1.317268e-09	-3.320284e+01	-1.588155e+02
6.200000e-07	-6.111167e-06	-1.331920e-09	-3.303700e+01	-1.585159e+02
6.300000e-07	-6.080059e-06	-1.325428e-09	-3.286883e+01	-1.582085e+02
6.400000e-07	-6.048583e-06	-1.317631e-09	-3.269867e+01	-1.578929e+02
6.500000e-07	-6.016770e-06	-1.323041e-09	-3.252669e+01	-1.575692e+02
6.600000e-07	-5.984586e-06	-1.318924e-09	-3.235270e+01	-1.572372e+02
6.700000e-07	-5.951900e-06	-1.311594e-09	-3.217600e+01	-1.568966e+02
6.800000e-07	-5.918547e-06	-1.310573e-09	-3.199570e+01	-1.565475e+02
6.900000e-07	-5.884465e-06	-1.307145e-09	-3.181145e+01	-1.561896e+02
7.000000e-07	-5.849879e-06	-1.303029e-09	-3.162447e+01	-1.558228e+02
7.100000e-07	-5.814838e-06	-1.298357e-09	-3.143504e+01	-1.554470e+02
7.200000e-07	-5.779307e-06	-1.292166e-09	-3.124297e+01	-1.550621e+02
7.300000e-07	-5.743474e-06	-1.291348e-09	-3.104925e+01	-1.546679e+02
7.400000e-07	-5.707317e-06	-1.291015e-09	-3.085379e+01	-1.542644e+02
7.500000e-07	-5.670803e-06	-1.283532e-09	-3.065639e+01	-1.538515e+02
7.600000e-07	-5.633938e-06	-1.278138e-09	-3.045710e+01	-1.534292e+02
7.700000e-07	-5.596711e-06	-1.277232e-09	-3.025585e+01	-1.529975e+02
7.800000e-07	-5.559169e-06	-1.272235e-09	-3.005289e+01	-1.525563e+02
7.900000e-07	-5.521143e-06	-1.264905e-09	-2.984733e+01	-1.521057e+02
8.000000e-07	-5.482515e-06	-1.259401e-09	-2.963850e+01	-1.516457e+02
8.100000e-07	-5.443452e-06	-1.253162e-09	-2.942733e+01	-1.511765e+02
8.200000e-07	-5.404112e-06	-1.248982e-09	-2.921465e+01	-1.506982e+02
8.300000e-07	-5.364572e-06	-1.246587e-09	-2.900090e+01	-1.502109e+02
8.400000e-07	-5.324778e-06	-1.241581e-09	-2.878578e+01	-1.497148e+02
8.500000e-07	-5.284524e-06	-1.234590e-09	-2.856816e+01	-1.492101e+02
8.600000e-07	-5.243871e-06	-1.228061e-09	-2.834840e+01	-1.486971e+02
8.700000e-07	-5.202927e-06	-1.222554e-09	-2.812705e+01	-1.481759e+02
8.800000e-07	-5.161568e-06	-1.216756e-09	-2.790346e+01	-1.476469e+02
8.900000e-07	-5.119761e-06	-1.208866e-09	-2.767745e+01	-1.471104e+02
9.000000e-07	-5.077402e-06	-1.200982e-09	-2.744846e+01	-1.465666e+02
9.100000e-07	-5.034473e-06	-1.197329e-09	-2.721639e+01	-1.460158e+02
9.200000e-07	-4.991094e-06	-1.194831e-09	-2.698188e+01	-1.454584e+02
9.300000e-07	-4.947375e-06	-1.189042e-09	-2.674553e+01	-1.448945e+02
9.400000e-07	-4.903462e-06	-1.180928e-09	-2.650814e+01	-1.443246e+02
9.500000e-07	-4.859260e-06	-1.173089e-09	-2.626918e+01	-1.437487e+02
9.600000e-07	-4.814602e-06	-1.166844e-09	-2.602776e+01	-1.431673e+02
9.700000e-07	-4.769648e-06	-1.161880e-09	-2.578474e+01	-1.425804e+02
9.800000e-07	-4.724400e-06	-1.156872e-09	-2.554013e+01	-1.419882e+02
9.900000e-07	-4.678824e-06	-1.151457e-09	-2.529375e+01	-1.413908e+02
1.000000e-06	-4.632946e-06	-1.145793e-09	-2.504573e+01	-1.407884e+02
1.010000e-06	-4.586819e-06	-1.140730e-09	-2.479636e+01	-1.401808e+02
1.020000e-06	-4.540408e-06	-1.135280e-09	-2.454547e+01	-1.395681e+02
1.030000e-06	-4.493547e-06	-1.128328e-09	-2.429214e+01	-1.389501e+02
1.040000e-06	-4.446412e-06	-1.121427e-09	-2.403732e+01	-1.383267e+02
1.050000e-06	-4.399119e-06	-1.116318e-09	-2.378166e+01	-1.376976e+02
1.060000e-06	-4.351571e-06	-1.112491e-09	-2.352461e+01	-1.370626e+02
1.070000e-06	-4.303686e-06	-1.108468e-09	-2.326575e+01	-1.364211e+02
1.080000e-06	-4.255505e-06	-1.102731e-09	-2.300528e+01	-1.357729e+02
1.090000e-06	-4.207011e-06	-1.095206e-09	-2.274312e+01	-1.351174e+02
1.100000e-06	-4.158124e-06	-1.087991e-09	-2.247884e+01	-1.344540e+02
1.110000e-06	-4.108701e-06	-1.082776e-09	-2.221166e+01	-1.337821e+02
1.120000e-06	-4.058723e-06	-1.078107e-09	-2.194148e+01	-1.331010e+02
1.130000e-06	-4.008365e-06	-1.072266e-09	-2.166924e+01	-1.324100e+02
1.140000e-06	-3.957583e-06	-1.065791e-09	-2.139471e+01	-1.317084e+02
1.150000e-06	-3.906418e-06	-1.059903e-09	-2.111811e+01	-1.309953e+02
1.160000e-06	-3.854938e-06	-1.053900e-09	-2.083982e+01	-1.302700e+02
1.170000e-06	-3.803161e-06	-1.047116e-09	-2.055991e+01	-1.295316e+02
1.180000e-06	-3.751074e-06	-1.040456e-09	-2.027832e+01	-1.287794e+02
1.190000e-06	-3.698774e-06	-1.033592e-09	-1.999559e+01	-1.280125e+02
1.200000e-06	-3.646199e-06	-1.027271e-09	-1.971137e+01	-1.272302e+02
1.210000e-06	-3.593242e-06	-1.021838e-09	-1.942508e+01	-1.264316e+02
1.220000e-06	-3.540131e-06	-1.014993e-09	-1.913797e+01	-1.256161e+02
1.230000e-06	-3.486903e-06	-1.006349e-09	-1.885022e+01	-1.247830e+02
1.240000e-06	-3.433303e-06	-9.988596e-10	-1.856045e+01	-1.239317e+02
1.250000e-06	-3.379410e-06	-9.929659e-10	-1.826911e+01	-1.230618e+02
1.260000e-06	-3.325415e-06	-9.864574e-10	-1.797721e+01	-1.221726e+02
1.270000e-06	-3.271146e-06	-9.791230e-10	-1.768383e+01	-1.212640e+02
1.280000e-06	-3.216595e-06	-9.717041e-10	-1.738893e+01	-1.203355e+02
1.290000e-06	-3.161821e-06	-9.636458e-10	-1.709282e+01	-1.193870e+02
1.300000e-06	-3.106765e-06	-9.552341e-10	-1.679519e+01	-1.184184e+02
1.310000e-06	-3.051515e-06	-9.466286e-10	-1.649650e+01	-1.174298e+02
1.320000e-06	-2.996174e-06	-9.375268e-10	-1.619733e+01	-1.164211e+02
1.330000e-06	-2.940678e-06	-9.280557e-10	-1.589732e+01	-1.153926e+02
1.340000e-06	-2.885019e-06	-9.189615e-10	-1.559643e+01	-1.143446e+02
1.350000e-06	-2.829287e-06	-9.103588e-10	-1.529514e+01	-1.132775e+02
1.360000e-06	-2.773468e-06	-9.015139e-10	-1.499338e+01	-1.121916e+02
1.370000e-06	-2.717436e-06	-8.925410e-10	-1.469047e+01	-1.110874e+02
1.380000e-06	-2.661273e-06	-8.834252e-10	-1.438686e+01	-1.099656e+02
1.390000e-06	-2.605014e-06	-8.745305e-10	-1.408272e+01	-1.088267e+02
1.400000e-06	-2.548613e-06	-8.658944e-10	-1.377782e+01	-1.076713e+02
1.410000e-06	-2.491974e-06	-8.566653e-10	-1.347163e+01	-1.065000e+02
1.420000e-06	-2.435111e-06	-8.471732e-10	-1.316422e+01	-1.053134e+02
1.430000e-06	-2.378068e-06	-8.374876e-10	-1.285585e+01	-1.041123e+02
1.440000e-06	-2.320575e-06	-8.269979e-10	-1.254504e+01	-1.028970e+02
1.450000e-06	-2.262599e-06	-8.165262e-10	-1.223162e+01	-1.016682e+02
1.460000e-06	-2.204316e-06	-8.059879e-10	-1.191655e+01	-1.004263e+02
1.470000e-06	-2.145776e-06	-7.946593e-10	-1.160008e+01	-9.917157e+01
1.480000e-06	-2.087075e-06	-7.831467e-10	-1.128274e+01	-9.790438e+01
1.490000e-06	-2.028157e-06	-7.723607e-10	-1.096423e+01	-9.662482e+01
1.500000e-06	-1.969077e-06	-7.619500e-10	-1.064484e+01	-9.533292e+01
1.510000e-06	-1.909915e-06	-7.508335e-10	-1.032501e+01	-9.402855e+01
1.520000e-06	-1.850502e-06	-7.398719e-10	-1.000382e+01	-9.271145e+01
1.530000e-06	-1.790913e-06	-7.288607e-10	-9.681683e+00	-9.138121e+01
1.540000e-06	-1.731295e-06	-7.165260e-10	-9.359391e+00	-9.003723e+01
1.550000e-06	-1.671635e-06	-7.040146e-10	-9.036866e+00	-8.867879e+01
1.560000e-06	-1.611975e-06	-6.920469e-10	-8.714343e+00	-8.730499e+01
1.570000e-06	-1.552344e-06	-6.806225e-10	-8.391977e+00	-8.591477e+01
1.580000e-06	-1.492609e-06	-6.694995e-10	-8.069052e+00	-8.450693e+01
1.590000e-06	-1.432757e-06	-6.581098e-10	-7.745493e+00	-8.308013e+01
1.600000e-06	-1.372829e-06	-6.457330e-10	-7.421519e+00	-8.163289e+01
1.610000e-06	-1.312790e-06	-6.331407e-10	-7.096951e+00	-8.016360e+01
1.620000e-06	-1.252690e-06	-6.204085e-10	-6.772049e+00	-7.867059e+01
1.630000e-06	-1.192511e-06	-6.070294e-10	-6.446722e+00	-7.715205e+01
1.640000e-06	-1.132275e-06	-5.943787e-10	-6.121083e+00	-7.560617e+01
1.650000e-06	-1.071970e-06	-5.817774e-10	-5.795078e+00	-7.403104e+01
1.660000e-06	-1.011597e-06	-5.690656e-10	-5.468697e+00	-7.242478e+01
1.670000e-06	-9.512793e-07	-5.566313e-10	-5.142621e+00	-7.078549e+01
1.680000e-06	-8.908718e-07	-5.432869e-10	-4.816057e+00	-6.911130e+01
1.690000e-06	-8.302712e-07	-5.292834e-10	-4.488451e+00	-6.740043e+01
1.700000e-06	-7.696467e-07	-5.157887e-10	-4.160714e+00	-6.565116e+01
1.710000e-06	-7.090279e-07	-5.023111e-10	-3.833009e+00	-6.386189e+01
1.720000e-06	-6.482513e-07	-4.879717e-10	-3.504450e+00	-6.203115e+01
1.730000e-06	-5.873309e-07	-4.731566e-10	-3.175114e+00	-6.015764e+01
1.740000e-06	-5.264583e-07	-4.588858e-10	-2.846036e+00	-5.824024e+01
1.750000e-06	-4.656226e-07	-4.446572e-10	-2.517158e+00	-5.627804e+01
1.760000e-06	-4.046665e-07	-4.289916e-10	-2.187629e+00	-5.427035e+01
1.770000e-06	-3.436577e-07	-4.120746e-10	-1.857815e+00	-5.221673e+01
1.780000e-06	-2.826826e-07	-3.950689e-10	-1.528184e+00	-5.011698e+01
1.790000e-06	-2.216084e-07	-3.777672e-10	-1.198016e+00	-4.797117e+01
1.800000e-06	-1.605505e-07	-3.595557e-10	-8.679371e-01	-4.577966e+01
1.810000e-06	-9.961673e-08	-3.410483e-10	-5.385286e-01	-4.354308e+01
1.820000e-06	-3.876055e-08	-3.221876e-10	-2.095397e-01	-4.126233e+01
1.830000e-06	2.212995e-08	-3.026859e-10	1.196346e-01	-3.893860e+01
1.840000e-06	8.310358e-08	-2.835192e-10	4.492584e-01	-3.657337e+01
1.850000e-06	1.441393e-07	-2.651987e-10	7.792180e-01	-3.416835e+01
1.860000e-06	2.052505e-07	-2.468330e-10	1.109585e+00	-3.172555e+01
1.870000e-06	2.662623e-07	-2.276231e-10	1.439415e+00	-2.924717e+01
1.880000e-06	3.272381e-07	-2.069258e-10	1.769051e+00	-2.673568e+01
1.890000e-06	3.881639e-07	-1.856874e-10	2.098416e+00	-2.419373e+01
1.900000e-06	4.489989e-07	-1.652143e-10	2.427290e+00	-2.162416e+01
1.910000e-06	5.098689e-07	-1.450842e-10	2.756354e+00	-1.902995e+01
1.920000e-06	5.707900e-07	-1.252862e-10	3.085694e+00	-1.641425e+01
1.930000e-06	6.316630e-07	-1.059355e-10	3.414773e+00	-1.378028e+01
1.940000e-06	6.923809e-07	-8.540574e-11	3.743014e+00	-1.113136e+01
1.950000e-06	7.530204e-07	-6.280489e-11	4.070832e+00	-8.470842e+00
1.960000e-06	8.135721e-07	-4.071337e-11	4.398175e+00	-5.802124e+00
1.970000e-06	8.740607e-07	-2.044906e-11	4.725177e+00	-3.128581e+00
1.980000e-06	9.345486e-07	-8.263603e-13	5.052175e+00	-4.535622e-01
1.990000e-06	9.949888e-07	1.917629e-11	5.378914e+00	2.219645e+00
2.000000e-06	1.055419e-06	4.028135e-11	5.705600e+00	4.887837e+00
2.010000e-06	1.115789e-06	6.234516e-11	6.031962e+00	7.547915e+00
2.020000e-06	1.176069e-06	8.461225e-11	6.357835e+00	1.019691e+01
2.030000e-06	1.236308e-06	1.063518e-10	6.683489e+00	1.283200e+01
2.040000e-06	1.296419e-06	1.269918e-10	7.008448e+00	1.545054e+01
2.050000e-06	1.356387e-06	1.471730e-10	7.332636e+00	1.805003e+01
2.060000e-06	1.416239e-06	1.677875e-10	7.656197e+00	2.062820e+01
2.070000e-06	1.476019e-06	1.881673e-10	7.979364e+00	2.318295e+01
2.080000e-06	1.535744e-06	2.071256e-10	8.302242e+00	2.571240e+01
2.090000e-06	1.595422e-06	2.255280e-10	8.624860e+00	2.821488e+01
2.100000e-06	1.655061e-06	2.452932e-10	8.947268e+00	3.068892e+01
2.110000e-06	1.714676e-06	2.657985e-10	9.269549e+00	3.313327e+01
2.120000e-06	1.774231e-06	2.853469e-10	9.591503e+00	3.554687e+01
2.130000e-06	1.833687e-06	3.040656e-10	9.912923e+00	3.792887e+01
2.140000e-06	1.893079e-06	3.226357e-10	1.023399e+01	4.027860e+01
2.150000e-06	1.952361e-06	3.409090e-10	1.055447e+01	4.259558e+01
2.160000e-06	2.011461e-06	3.592961e-10	1.087397e+01	4.487948e+01
2.170000e-06	2.070335e-06	3.774562e-10	1.119224e+01	4.713016e+01
2.180000e-06	2.128933e-06	3.943959e-10	1.150902e+01	4.934757e+01
2.190000e-06	2.187288e-06	4.117250e-10	1.182449e+01	5.153183e+01
2.200000e-06	2.245338e-06	4.298352e-10	1.213831e+01	5.368315e+01
2.210000e-06	2.303073e-06	4.473292e-10	1.245042e+01	5.580184e+01
2.220000e-06	2.360699e-06	4.631516e-10	1.276195e+01	5.788828e+01
2.230000e-06	2.418034e-06	4.783018e-10	1.307190e+01	5.994294e+01
2.240000e-06	2.474990e-06	4.947963e-10	1.337981e+01	6.196632e+01
2.250000e-06	2.531725e-06	5.115598e-10	1.368652e+01	6.395895e+01
2.260000e-06	2.588208e-06	5.270553e-10	1.399186e+01	6.592142e+01
2.270000e-06	2.644479e-06	5.419056e-10	1.429607e+01	6.785431e+01
2.280000e-06	2.700521e-06	5.565383e-10	1.459903e+01	6.975818e+01
2.290000e-06	2.756386e-06	5.704207e-10	1.490104e+01	7.163363e+01
2.300000e-06	2.812169e-06	5.854150e-10	1.520260e+01	7.348121e+01
2.310000e-06	2.867873e-06	6.014649e-10	1.550374e+01	7.530147e+01
2.320000e-06	2.923476e-06	6.169599e-10	1.580433e+01	7.709491e+01
2.330000e-06	2.978987e-06	6.326337e-10	1.610442e+01	7.886204e+01
2.340000e-06	3.034210e-06	6.475451e-10	1.640295e+01	8.060329e+01
2.350000e-06	3.089094e-06	6.610395e-10	1.669966e+01	8.231909e+01
2.360000e-06	3.143869e-06	6.732892e-10	1.699577e+01	8.400983e+01
2.370000e-06	3.198457e-06	6.837568e-10	1.729088e+01	8.567585e+01
2.380000e-06	3.252727e-06	6.946836e-10	1.758426e+01	8.731749e+01
2.390000e-06	3.306744e-06	7.085828e-10	1.787628e+01	8.893502e+01
2.400000e-06	3.360547e-06	7.245917e-10	1.816713e+01	9.052873e+01
2.410000e-06	3.414192e-06	7.394028e-10	1.845714e+01	9.209884e+01
2.420000e-06	3.467660e-06	7.519406e-10	1.874619e+01	9.364560e+01
2.430000e-06	3.520901e-06	7.628219e-10	1.903401e+01	9.516919e+01
2.440000e-06	3.573850e-06	7.734624e-10	1.932025e+01	9.666982e+01
2.450000e-06	3.626441e-06	7.849491e-10	1.960456e+01	9.814769e+01
2.460000e-06	3.678813e-06	7.961858e-10	1.988768e+01	9.960296e+01
2.470000e-06	3.730938e-06	8.077358e-10	2.016947e+01	1.010358e+02
2.480000e-06	3.782763e-06	8.197011e-10	2.044964e+01	1.024465e+02
2.490000e-06	3.834320e-06	8.311038e-10	2.072835e+01	1.038350e+02
2.500000e-06	3.885615e-06	8.420603e-10	2.100565e+01	1.052017e+02
2.510000e-06	3.936483e-06	8.519049e-10	2.128065e+01	1.065468e+02
2.520000e-06	3.986824e-06	8.611299e-10	2.155279e+01	1.078704e+02
2.530000e-06	4.036800e-06	8.708568e-10	2.182296e+01	1.091726e+02
2.540000e-06	4.086461e-06	8.809664e-10	2.209143e+01	1.104538e+02
2.550000e-06	4.135696e-06	8.910462e-10	2.235759e+01	1.117142e+02
2.560000e-06	4.184425e-06	8.997651e-10	2.262102e+01	1.129538e+02
2.570000e-06	4.232694e-06	9.079794e-10	2.288196e+01	1.141730e+02
2.580000e-06	4.280713e-06	9.171964e-10	2.314156e+01	1.153719e+02
2.590000e-06	4.328588e-06	9.266323e-10	2.340037e+01	1.165508e+02
2.600000e-06	4.376229e-06	9.360132e-10	2.365792e+01	1.177098e+02
2.610000e-06	4.423574e-06	9.443949e-10	2.391386e+01	1.188490e+02
2.620000e-06	4.470678e-06	9.518684e-10	2.416851e+01	1.199688e+02
2.630000e-06	4.517423e-06	9.601774e-10	2.442121e+01	1.210691e+02
2.640000e-06	4.563700e-06	9.689215e-10	2.467138e+01	1.221503e+02
2.650000e-06	4.609587e-06	9.773202e-10	2.491945e+01	1.232123e+02
2.660000e-06	4.655204e-06	9.849597e-10	2.516606e+01	1.242552e+02
2.670000e-06	4.700603e-06	9.920716e-10	2.541148e+01	1.252793e+02
2.680000e-06	4.745682e-06	9.999145e-10	2.565518e+01	1.262845e+02
2.690000e-06	4.790364e-06	1.007835e-09	2.589673e+01	1.272709e+02
2.700000e-06	4.834656e-06	1.014414e-09	2.613617e+01	1.282385e+02
2.710000e-06	4.878757e-06	1.021064e-09	2.637459e+01	1.291874e+02
2.720000e-06	4.922715e-06	1.029066e-09	2.661222e+01	1.301175e+02
2.730000e-06	4.966435e-06	1.037394e-09	2.684857e+01	1.310289e+02
2.740000e-06	5.009940e-06	1.044798e-09	2.708376e+01	1.319216e+02
2.750000e-06	5.053127e-06	1.050976e-09	2.731723e+01	1.327956e+02
2.760000e-06	5.095832e-06	1.057208e-09	2.754809e+01	1.336508e+02
2.770000e-06	5.137933e-06	1.064641e-09	2.777569e+01	1.344873e+02
2.780000e-06	5.179355e-06	1.072378e-09	2.799962e+01	1.353052e+02
2.790000e-06	5.220194e-06	1.079603e-09	2.822039e+01	1.361044e+02
2.800000e-06	5.260584e-06	1.086895e-09	2.843875e+01	1.368850e+02
2.810000e-06	5.300680e-06	1.093934e-09	2.865550e+01	1.376471e+02
2.820000e-06	5.340495e-06	1.100951e-09	2.887075e+01	1.383909e+02
2.830000e-06	5.380114e-06	1.108832e-09	2.908492e+01	1.391164e+02
2.840000e-06	5.419488e-06	1.116412e-09	2.929778e+01	1.398238e+02
2.850000e-06	5.458448e-06	1.122420e-09	2.950840e+01	1.405133e+02
2.860000e-06	5.497008e-06	1.127704e-09	2.971685e+01	1.411853e+02
2.870000e-06	5.535180e-06	1.133804e-09	2.992321e+01	1.418400e+02
2.880000e-06	5.573017e-06	1.140839e-09	3.012776e+01	1.424777e+02
2.890000e-06	5.610438e-06	1.147092e-09	3.033006e+01	1.430989e+02
2.900000e-06	5.647286e-06	1.152623e-09	3.052926e+01	1.437039e+02
