# Temperatura_=_20.0
# Concentracion g/m^3_=_7400.0
# C_Vs_to_Am_M_A/Vsm_=_116720831517.84952
# pendiente_HvsI_1/m_=_3716.3
# ordenada_HvsI_A/m_=_1297.0
# frecuencia_Hz_=_136111.08025789532

Tiempo_(s)	Campo_(V.s)	Magnetizacion_(V.s)	Campo_(kA/m)	Magnetizacion_(A/m)
0.000000e+00	-7.104431e-06	-1.565718e-09	-3.843477e+01	-1.811011e+02
1.000000e-08	-7.104497e-06	-1.565120e-09	-3.843513e+01	-1.810801e+02
2.000000e-08	-7.104291e-06	-1.565644e-09	-3.843401e+01	-1.810498e+02
3.000000e-08	-7.103473e-06	-1.566224e-09	-3.842959e+01	-1.810109e+02
4.000000e-08	-7.101833e-06	-1.565359e-09	-3.842072e+01	-1.809638e+02
5.000000e-08	-7.099434e-06	-1.562862e-09	-3.840774e+01	-1.809091e+02
6.000000e-08	-7.096417e-06	-1.560374e-09	-3.839142e+01	-1.808473e+02
7.000000e-08	-7.092924e-06	-1.557203e-09	-3.837252e+01	-1.807791e+02
8.000000e-08	-7.088934e-06	-1.552712e-09	-3.835093e+01	-1.807050e+02
9.000000e-08	-7.084164e-06	-1.556060e-09	-3.832513e+01	-1.806257e+02
1.000000e-07	-7.078617e-06	-1.559426e-09	-3.829512e+01	-1.805416e+02
1.100000e-07	-7.072756e-06	-1.537615e-09	-3.826341e+01	-1.804535e+02
1.200000e-07	-7.066664e-06	-1.530835e-09	-3.823045e+01	-1.803617e+02
1.300000e-07	-7.060099e-06	-1.571961e-09	-3.819494e+01	-1.802670e+02
1.400000e-07	-7.053137e-06	-1.583381e-09	-3.815727e+01	-1.801698e+02
1.500000e-07	-7.045781e-06	-1.520099e-09	-3.811748e+01	-1.800705e+02
1.600000e-07	-7.038071e-06	-1.500310e-09	-3.807577e+01	-1.799696e+02
1.700000e-07	-7.029853e-06	-1.575930e-09	-3.803131e+01	-1.798675e+02
1.800000e-07	-7.020899e-06	-1.584238e-09	-3.798287e+01	-1.797644e+02
1.900000e-07	-7.011361e-06	-1.487861e-09	-3.793127e+01	-1.796608e+02
2.000000e-07	-7.001268e-06	-1.481909e-09	-3.787666e+01	-1.795567e+02
2.100000e-07	-6.990562e-06	-1.588330e-09	-3.781874e+01	-1.794524e+02
2.200000e-07	-6.979344e-06	-1.579902e-09	-3.775805e+01	-1.793479e+02
2.300000e-07	-6.967683e-06	-1.471043e-09	-3.769497e+01	-1.792432e+02
2.400000e-07	-6.955425e-06	-1.487785e-09	-3.762865e+01	-1.791383e+02
2.500000e-07	-6.942468e-06	-1.579052e-09	-3.755856e+01	-1.790330e+02
2.600000e-07	-6.928987e-06	-1.537808e-09	-3.748562e+01	-1.789271e+02
2.700000e-07	-6.914991e-06	-1.465536e-09	-3.740991e+01	-1.788203e+02
2.800000e-07	-6.900000e-06	-1.520286e-09	-3.732881e+01	-1.787124e+02
2.900000e-07	-6.884116e-06	-1.554828e-09	-3.724287e+01	-1.786030e+02
3.000000e-07	-6.867936e-06	-1.485642e-09	-3.715534e+01	-1.784915e+02
3.100000e-07	-6.851308e-06	-1.483547e-09	-3.706538e+01	-1.783775e+02
3.200000e-07	-6.834200e-06	-1.549627e-09	-3.697283e+01	-1.782604e+02
3.300000e-07	-6.816839e-06	-1.505147e-09	-3.687891e+01	-1.781397e+02
3.400000e-07	-6.799047e-06	-1.451407e-09	-3.678265e+01	-1.780147e+02
3.500000e-07	-6.780654e-06	-1.522549e-09	-3.668315e+01	-1.778849e+02
3.600000e-07	-6.761726e-06	-1.543985e-09	-3.658075e+01	-1.777496e+02
3.700000e-07	-6.742388e-06	-1.451808e-09	-3.647613e+01	-1.776082e+02
3.800000e-07	-6.722656e-06	-1.458319e-09	-3.636938e+01	-1.774601e+02
3.900000e-07	-6.702464e-06	-1.536894e-09	-3.626014e+01	-1.773046e+02
4.000000e-07	-6.681765e-06	-1.494226e-09	-3.614816e+01	-1.771411e+02
4.100000e-07	-6.660632e-06	-1.441304e-09	-3.603383e+01	-1.769693e+02
4.200000e-07	-6.639026e-06	-1.499940e-09	-3.591694e+01	-1.767884e+02
4.300000e-07	-6.617057e-06	-1.509600e-09	-3.579810e+01	-1.765982e+02
4.400000e-07	-6.594787e-06	-1.447532e-09	-3.567761e+01	-1.763982e+02
4.500000e-07	-6.571969e-06	-1.469356e-09	-3.555417e+01	-1.761881e+02
4.600000e-07	-6.548644e-06	-1.504085e-09	-3.542798e+01	-1.759676e+02
4.700000e-07	-6.525002e-06	-1.455529e-09	-3.530008e+01	-1.757365e+02
4.800000e-07	-6.501023e-06	-1.447721e-09	-3.517035e+01	-1.754948e+02
4.900000e-07	-6.476582e-06	-1.492349e-09	-3.503813e+01	-1.752425e+02
5.000000e-07	-6.451419e-06	-1.466812e-09	-3.490200e+01	-1.749794e+02
5.100000e-07	-6.425482e-06	-1.433274e-09	-3.476168e+01	-1.747058e+02
5.200000e-07	-6.398937e-06	-1.464737e-09	-3.461807e+01	-1.744217e+02
5.300000e-07	-6.371823e-06	-1.467586e-09	-3.447138e+01	-1.741275e+02
5.400000e-07	-6.344275e-06	-1.433799e-09	-3.432235e+01	-1.738235e+02
5.500000e-07	-6.316458e-06	-1.445202e-09	-3.417186e+01	-1.735098e+02
5.600000e-07	-6.288169e-06	-1.458736e-09	-3.401882e+01	-1.731871e+02
5.700000e-07	-6.259479e-06	-1.434951e-09	-3.386361e+01	-1.728555e+02
5.800000e-07	-6.230514e-06	-1.431835e-09	-3.370691e+01	-1.725156e+02
5.900000e-07	-6.200897e-06	-1.444384e-09	-3.354668e+01	-1.721678e+02
6.000000e-07	-6.170787e-06	-1.431140e-09	-3.338378e+01	-1.718126e+02
6.100000e-07	-6.140388e-06	-1.422928e-09	-3.321933e+01	-1.714504e+02
6.200000e-07	-6.109576e-06	-1.431224e-09	-3.305264e+01	-1.710816e+02
6.300000e-07	-6.078425e-06	-1.425613e-09	-3.288411e+01	-1.707067e+02
6.400000e-07	-6.046974e-06	-1.416544e-09	-3.271396e+01	-1.703259e+02
6.500000e-07	-6.015187e-06	-1.418600e-09	-3.254199e+01	-1.699397e+02
6.600000e-07	-5.983195e-06	-1.415121e-09	-3.236892e+01	-1.695482e+02
6.700000e-07	-5.950718e-06	-1.407482e-09	-3.219322e+01	-1.691518e+02
6.800000e-07	-5.917442e-06	-1.405206e-09	-3.201320e+01	-1.687504e+02
6.900000e-07	-5.883465e-06	-1.402090e-09	-3.182938e+01	-1.683443e+02
7.000000e-07	-5.848834e-06	-1.397614e-09	-3.164203e+01	-1.679335e+02
7.100000e-07	-5.813772e-06	-1.393386e-09	-3.145234e+01	-1.675178e+02
7.200000e-07	-5.778412e-06	-1.387129e-09	-3.126104e+01	-1.670972e+02
7.300000e-07	-5.742719e-06	-1.383039e-09	-3.106795e+01	-1.666714e+02
7.400000e-07	-5.706567e-06	-1.380996e-09	-3.087237e+01	-1.662403e+02
7.500000e-07	-5.670026e-06	-1.375891e-09	-3.067468e+01	-1.658035e+02
7.600000e-07	-5.633161e-06	-1.371432e-09	-3.047525e+01	-1.653606e+02
7.700000e-07	-5.595835e-06	-1.369122e-09	-3.027331e+01	-1.649112e+02
7.800000e-07	-5.558142e-06	-1.364719e-09	-3.006939e+01	-1.644549e+02
7.900000e-07	-5.520093e-06	-1.358964e-09	-2.986355e+01	-1.639912e+02
8.000000e-07	-5.481559e-06	-1.354168e-09	-2.965508e+01	-1.635196e+02
8.100000e-07	-5.442623e-06	-1.348736e-09	-2.944444e+01	-1.630395e+02
8.200000e-07	-5.403512e-06	-1.344095e-09	-2.923285e+01	-1.625505e+02
8.300000e-07	-5.364138e-06	-1.340765e-09	-2.901983e+01	-1.620521e+02
8.400000e-07	-5.324458e-06	-1.336444e-09	-2.880517e+01	-1.615438e+02
8.500000e-07	-5.284520e-06	-1.329941e-09	-2.858911e+01	-1.610251e+02
8.600000e-07	-5.244078e-06	-1.322826e-09	-2.837031e+01	-1.604957e+02
8.700000e-07	-5.203138e-06	-1.316909e-09	-2.814883e+01	-1.599552e+02
8.800000e-07	-5.161950e-06	-1.311089e-09	-2.792601e+01	-1.594032e+02
8.900000e-07	-5.120299e-06	-1.303450e-09	-2.770068e+01	-1.588396e+02
9.000000e-07	-5.077911e-06	-1.295396e-09	-2.747135e+01	-1.582641e+02
9.100000e-07	-5.034971e-06	-1.289505e-09	-2.723905e+01	-1.576767e+02
9.200000e-07	-4.991709e-06	-1.284521e-09	-2.700500e+01	-1.570772e+02
9.300000e-07	-4.948122e-06	-1.277710e-09	-2.676920e+01	-1.564658e+02
9.400000e-07	-4.904203e-06	-1.270117e-09	-2.653160e+01	-1.558424e+02
9.500000e-07	-4.859987e-06	-1.263815e-09	-2.629239e+01	-1.552072e+02
9.600000e-07	-4.815470e-06	-1.258625e-09	-2.605156e+01	-1.545605e+02
9.700000e-07	-4.770717e-06	-1.253409e-09	-2.580945e+01	-1.539024e+02
9.800000e-07	-4.725623e-06	-1.247191e-09	-2.556549e+01	-1.532333e+02
9.900000e-07	-4.680116e-06	-1.240504e-09	-2.531929e+01	-1.525535e+02
1.000000e-06	-4.634276e-06	-1.234561e-09	-2.507130e+01	-1.518633e+02
1.010000e-06	-4.588005e-06	-1.228714e-09	-2.482098e+01	-1.511632e+02
1.020000e-06	-4.541477e-06	-1.222291e-09	-2.456927e+01	-1.504534e+02
1.030000e-06	-4.494689e-06	-1.215389e-09	-2.431614e+01	-1.497343e+02
1.040000e-06	-4.447532e-06	-1.209158e-09	-2.406102e+01	-1.490062e+02
1.050000e-06	-4.400173e-06	-1.204434e-09	-2.380481e+01	-1.482695e+02
1.060000e-06	-4.352561e-06	-1.199256e-09	-2.354723e+01	-1.475244e+02
1.070000e-06	-4.304684e-06	-1.193457e-09	-2.328822e+01	-1.467710e+02
1.080000e-06	-4.256594e-06	-1.187048e-09	-2.302806e+01	-1.460097e+02
1.090000e-06	-4.208188e-06	-1.180133e-09	-2.276618e+01	-1.452404e+02
1.100000e-06	-4.159234e-06	-1.173388e-09	-2.250134e+01	-1.444631e+02
1.110000e-06	-4.109662e-06	-1.166535e-09	-2.223316e+01	-1.436777e+02
1.120000e-06	-4.059637e-06	-1.159758e-09	-2.196252e+01	-1.428842e+02
1.130000e-06	-4.009276e-06	-1.153253e-09	-2.169007e+01	-1.420823e+02
1.140000e-06	-3.958561e-06	-1.147329e-09	-2.141570e+01	-1.412716e+02
1.150000e-06	-3.907562e-06	-1.142051e-09	-2.113980e+01	-1.404517e+02
1.160000e-06	-3.856299e-06	-1.136248e-09	-2.086247e+01	-1.396223e+02
1.170000e-06	-3.804619e-06	-1.129602e-09	-2.058288e+01	-1.387828e+02
1.180000e-06	-3.752543e-06	-1.122511e-09	-2.030116e+01	-1.379325e+02
1.190000e-06	-3.700181e-06	-1.115472e-09	-2.001787e+01	-1.370709e+02
1.200000e-06	-3.647479e-06	-1.108414e-09	-1.973276e+01	-1.361972e+02
1.210000e-06	-3.594605e-06	-1.101236e-09	-1.944671e+01	-1.353108e+02
1.220000e-06	-3.541580e-06	-1.093068e-09	-1.915985e+01	-1.344109e+02
1.230000e-06	-3.488268e-06	-1.084005e-09	-1.887143e+01	-1.334969e+02
1.240000e-06	-3.434766e-06	-1.075745e-09	-1.858199e+01	-1.325680e+02
1.250000e-06	-3.381024e-06	-1.069157e-09	-1.829125e+01	-1.316236e+02
1.260000e-06	-3.327027e-06	-1.062493e-09	-1.799912e+01	-1.306630e+02
1.270000e-06	-3.272751e-06	-1.054131e-09	-1.770549e+01	-1.296856e+02
1.280000e-06	-3.218325e-06	-1.045926e-09	-1.741105e+01	-1.286909e+02
1.290000e-06	-3.163865e-06	-1.038291e-09	-1.711642e+01	-1.276785e+02
1.300000e-06	-3.109047e-06	-1.029532e-09	-1.681986e+01	-1.266480e+02
1.310000e-06	-3.053896e-06	-1.020092e-09	-1.652149e+01	-1.255991e+02
1.320000e-06	-2.998661e-06	-1.011376e-09	-1.622267e+01	-1.245317e+02
1.330000e-06	-2.943302e-06	-1.002530e-09	-1.592318e+01	-1.234456e+02
1.340000e-06	-2.887721e-06	-9.933240e-10	-1.562249e+01	-1.223409e+02
1.350000e-06	-2.831953e-06	-9.840114e-10	-1.532078e+01	-1.212177e+02
1.360000e-06	-2.776175e-06	-9.742604e-10	-1.501903e+01	-1.200761e+02
1.370000e-06	-2.720319e-06	-9.648291e-10	-1.471685e+01	-1.189165e+02
1.380000e-06	-2.664230e-06	-9.563289e-10	-1.441341e+01	-1.177392e+02
1.390000e-06	-2.607919e-06	-9.473128e-10	-1.410877e+01	-1.165446e+02
1.400000e-06	-2.551431e-06	-9.372266e-10	-1.380317e+01	-1.153332e+02
1.410000e-06	-2.494853e-06	-9.267820e-10	-1.349708e+01	-1.141056e+02
1.420000e-06	-2.437991e-06	-9.165259e-10	-1.318946e+01	-1.128621e+02
1.430000e-06	-2.380703e-06	-9.070027e-10	-1.287954e+01	-1.116034e+02
1.440000e-06	-2.323069e-06	-8.977419e-10	-1.256774e+01	-1.103300e+02
1.450000e-06	-2.265194e-06	-8.870874e-10	-1.225463e+01	-1.090423e+02
1.460000e-06	-2.207053e-06	-8.751422e-10	-1.194010e+01	-1.077408e+02
1.470000e-06	-2.148580e-06	-8.635389e-10	-1.162376e+01	-1.064257e+02
1.480000e-06	-2.089862e-06	-8.521928e-10	-1.130609e+01	-1.050974e+02
1.490000e-06	-2.030896e-06	-8.405221e-10	-1.098709e+01	-1.037559e+02
1.500000e-06	-1.971652e-06	-8.290566e-10	-1.066658e+01	-1.024013e+02
1.510000e-06	-1.912230e-06	-8.174415e-10	-1.034511e+01	-1.010334e+02
1.520000e-06	-1.852753e-06	-8.059491e-10	-1.002334e+01	-9.965188e+01
1.530000e-06	-1.793203e-06	-7.954966e-10	-9.701176e+00	-9.825629e+01
1.540000e-06	-1.733634e-06	-7.846143e-10	-9.378911e+00	-9.684598e+01
1.550000e-06	-1.674075e-06	-7.718576e-10	-9.056699e+00	-9.542011e+01
1.560000e-06	-1.614451e-06	-7.587032e-10	-8.734137e+00	-9.397768e+01
1.570000e-06	-1.554782e-06	-7.469699e-10	-8.411328e+00	-9.251749e+01
1.580000e-06	-1.495074e-06	-7.362888e-10	-8.088310e+00	-9.103818e+01
1.590000e-06	-1.435281e-06	-7.245298e-10	-7.764833e+00	-8.953819e+01
1.600000e-06	-1.375471e-06	-7.111093e-10	-7.441262e+00	-8.801585e+01
1.610000e-06	-1.315618e-06	-6.976902e-10	-7.117456e+00	-8.646931e+01
1.620000e-06	-1.255734e-06	-6.849711e-10	-6.793485e+00	-8.489661e+01
1.630000e-06	-1.195806e-06	-6.726982e-10	-6.469275e+00	-8.329569e+01
1.640000e-06	-1.135771e-06	-6.595138e-10	-6.144490e+00	-8.166440e+01
1.650000e-06	-1.075690e-06	-6.455290e-10	-5.819452e+00	-8.000056e+01
1.660000e-06	-1.015487e-06	-6.323247e-10	-5.493756e+00	-7.830193e+01
1.670000e-06	-9.552294e-07	-6.196376e-10	-5.167764e+00	-7.656631e+01
1.680000e-06	-8.949605e-07	-6.055996e-10	-4.841711e+00	-7.479150e+01
1.690000e-06	-8.345760e-07	-5.901854e-10	-4.515033e+00	-7.297539e+01
1.700000e-06	-7.741409e-07	-5.753110e-10	-4.188080e+00	-7.111595e+01
1.710000e-06	-7.136010e-07	-5.613412e-10	-3.860562e+00	-6.921130e+01
1.720000e-06	-6.530456e-07	-5.467754e-10	-3.532959e+00	-6.725968e+01
1.730000e-06	-5.924672e-07	-5.310270e-10	-3.205231e+00	-6.525957e+01
1.740000e-06	-5.317671e-07	-5.148921e-10	-2.876845e+00	-6.320963e+01
1.750000e-06	-4.709225e-07	-4.983798e-10	-2.547677e+00	-6.110877e+01
1.760000e-06	-4.099883e-07	-4.812969e-10	-2.218025e+00	-5.895617e+01
1.770000e-06	-3.491533e-07	-4.644400e-10	-1.888910e+00	-5.675129e+01
1.780000e-06	-2.882751e-07	-4.476188e-10	-1.559560e+00	-5.449390e+01
1.790000e-06	-2.274064e-07	-4.293487e-10	-1.230262e+00	-5.218408e+01
1.800000e-06	-1.666445e-07	-4.097500e-10	-9.015422e-01	-4.982226e+01
1.810000e-06	-1.058793e-07	-3.899730e-10	-5.728038e-01	-4.740916e+01
1.820000e-06	-4.498385e-08	-3.699553e-10	-2.433613e-01	-4.494589e+01
1.830000e-06	1.600410e-08	-3.489330e-10	8.658172e-02	-4.243385e+01
1.840000e-06	7.687933e-08	-3.272231e-10	4.159150e-01	-3.987480e+01
1.850000e-06	1.376571e-07	-3.051257e-10	7.447210e-01	-3.727081e+01
1.860000e-06	1.984748e-07	-2.831163e-10	1.073743e+00	-3.462425e+01
1.870000e-06	2.593234e-07	-2.608972e-10	1.402932e+00	-3.193779e+01
1.880000e-06	3.203025e-07	-2.379717e-10	1.732828e+00	-2.921436e+01
1.890000e-06	3.812814e-07	-2.151366e-10	2.062722e+00	-2.645716e+01
1.900000e-06	4.421110e-07	-1.925014e-10	2.391808e+00	-2.366957e+01
1.910000e-06	5.029064e-07	-1.696517e-10	2.720709e+00	-2.085521e+01
1.920000e-06	5.637530e-07	-1.471205e-10	3.049888e+00	-1.801781e+01
1.930000e-06	6.245340e-07	-1.243546e-10	3.378711e+00	-1.516127e+01
1.940000e-06	6.851374e-07	-1.003812e-10	3.706574e+00	-1.228957e+01
1.950000e-06	7.456866e-07	-7.630825e-11	4.034143e+00	-9.406728e+00
1.960000e-06	8.061902e-07	-5.185441e-11	4.361466e+00	-6.516823e+00
1.970000e-06	8.665952e-07	-2.655044e-11	4.688256e+00	-3.623905e+00
1.980000e-06	9.269431e-07	-3.219435e-12	5.014736e+00	-7.319854e-01
1.990000e-06	9.872769e-07	1.926246e-11	5.341140e+00	2.155000e+00
2.000000e-06	1.047626e-06	4.368526e-11	5.667629e+00	5.033223e+00
2.010000e-06	1.107914e-06	6.778432e-11	5.993784e+00	7.898991e+00
2.020000e-06	1.168116e-06	9.152082e-11	6.319476e+00	1.074878e+01
2.030000e-06	1.228206e-06	1.163731e-10	6.644562e+00	1.357924e+01
2.040000e-06	1.288101e-06	1.402753e-10	6.968593e+00	1.638726e+01
2.050000e-06	1.347990e-06	1.629263e-10	7.292586e+00	1.916993e+01
2.060000e-06	1.407904e-06	1.856954e-10	7.616719e+00	2.192460e+01
2.070000e-06	1.467691e-06	2.080857e-10	7.940165e+00	2.464889e+01
2.080000e-06	1.527363e-06	2.295734e-10	8.262991e+00	2.734066e+01
2.090000e-06	1.587068e-06	2.500251e-10	8.585993e+00	2.999809e+01
2.100000e-06	1.646756e-06	2.705807e-10	8.908905e+00	3.261959e+01
2.110000e-06	1.706320e-06	2.918372e-10	9.231145e+00	3.520387e+01
2.120000e-06	1.765797e-06	3.126356e-10	9.552913e+00	3.774993e+01
2.130000e-06	1.825246e-06	3.328217e-10	9.874531e+00	4.025702e+01
2.140000e-06	1.884699e-06	3.521878e-10	1.019617e+01	4.272464e+01
2.150000e-06	1.944071e-06	3.702713e-10	1.051737e+01	4.515256e+01
2.160000e-06	2.003319e-06	3.891729e-10	1.083790e+01	4.754076e+01
2.170000e-06	2.062365e-06	4.086019e-10	1.115734e+01	4.988946e+01
2.180000e-06	2.121138e-06	4.272112e-10	1.147530e+01	5.219906e+01
2.190000e-06	2.179633e-06	4.460608e-10	1.179175e+01	5.447015e+01
2.200000e-06	2.237804e-06	4.646247e-10	1.210646e+01	5.670347e+01
2.210000e-06	2.295581e-06	4.817848e-10	1.241903e+01	5.889991e+01
2.220000e-06	2.353034e-06	4.984234e-10	1.272985e+01	6.106047e+01
2.230000e-06	2.410266e-06	5.149137e-10	1.303947e+01	6.318623e+01
2.240000e-06	2.467132e-06	5.315114e-10	1.334712e+01	6.527836e+01
2.250000e-06	2.523603e-06	5.483971e-10	1.365262e+01	6.733807e+01
2.260000e-06	2.579845e-06	5.643257e-10	1.395689e+01	6.936662e+01
2.270000e-06	2.635974e-06	5.788277e-10	1.426055e+01	7.136525e+01
2.280000e-06	2.692056e-06	5.930845e-10	1.456395e+01	7.333521e+01
2.290000e-06	2.748034e-06	6.078988e-10	1.486679e+01	7.527771e+01
2.300000e-06	2.803780e-06	6.230643e-10	1.516837e+01	7.719395e+01
2.310000e-06	2.859430e-06	6.392287e-10	1.546944e+01	7.908504e+01
2.320000e-06	2.915090e-06	6.566897e-10	1.577056e+01	8.095203e+01
2.330000e-06	2.970517e-06	6.743103e-10	1.607041e+01	8.279590e+01
2.340000e-06	3.025686e-06	6.898284e-10	1.636887e+01	8.461754e+01
2.350000e-06	3.080632e-06	7.025137e-10	1.666614e+01	8.641774e+01
2.360000e-06	3.135438e-06	7.136774e-10	1.696263e+01	8.819720e+01
2.370000e-06	3.190131e-06	7.248073e-10	1.725852e+01	8.995651e+01
2.380000e-06	3.244512e-06	7.369254e-10	1.755272e+01	9.169617e+01
2.390000e-06	3.298544e-06	7.513441e-10	1.784503e+01	9.341656e+01
2.400000e-06	3.352305e-06	7.674466e-10	1.813588e+01	9.511797e+01
2.410000e-06	3.405898e-06	7.829376e-10	1.842581e+01	9.680060e+01
2.420000e-06	3.459389e-06	7.970364e-10	1.871520e+01	9.846455e+01
2.430000e-06	3.512688e-06	8.097398e-10	1.900354e+01	1.001098e+02
2.440000e-06	3.565601e-06	8.217349e-10	1.928980e+01	1.017364e+02
2.450000e-06	3.618174e-06	8.339300e-10	1.957422e+01	1.033440e+02
2.460000e-06	3.670473e-06	8.459620e-10	1.985716e+01	1.049326e+02
2.470000e-06	3.722496e-06	8.578001e-10	2.013860e+01	1.065019e+02
2.480000e-06	3.774242e-06	8.697817e-10	2.041854e+01	1.080516e+02
2.490000e-06	3.825725e-06	8.817990e-10	2.069706e+01	1.095813e+02
2.500000e-06	3.877063e-06	8.938336e-10	2.097480e+01	1.110908e+02
2.510000e-06	3.928127e-06	9.058099e-10	2.125106e+01	1.125796e+02
2.520000e-06	3.978612e-06	9.179453e-10	2.152418e+01	1.140473e+02
2.530000e-06	4.028618e-06	9.293834e-10	2.179471e+01	1.154936e+02
2.540000e-06	4.078369e-06	9.398806e-10	2.206386e+01	1.169182e+02
2.550000e-06	4.127553e-06	9.497013e-10	2.232995e+01	1.183206e+02
2.560000e-06	4.176079e-06	9.589890e-10	2.259247e+01	1.197006e+02
2.570000e-06	4.224304e-06	9.683863e-10	2.285337e+01	1.210578e+02
2.580000e-06	4.272319e-06	9.786709e-10	2.311313e+01	1.223920e+02
2.590000e-06	4.320090e-06	9.901726e-10	2.337157e+01	1.237031e+02
2.600000e-06	4.367762e-06	1.001735e-09	2.362947e+01	1.249907e+02
2.610000e-06	4.415137e-06	1.012109e-09	2.388577e+01	1.262549e+02
2.620000e-06	4.462230e-06	1.020639e-09	2.414054e+01	1.274954e+02
2.630000e-06	4.509049e-06	1.028307e-09	2.439383e+01	1.287123e+02
2.640000e-06	4.555408e-06	1.037268e-09	2.464463e+01	1.299057e+02
2.650000e-06	4.601352e-06	1.047584e-09	2.489318e+01	1.310755e+02
2.660000e-06	4.646944e-06	1.056683e-09	2.513984e+01	1.322220e+02
2.670000e-06	4.692347e-06	1.064225e-09	2.538547e+01	1.333452e+02
2.680000e-06	4.737468e-06	1.072171e-09	2.562957e+01	1.344454e+02
2.690000e-06	4.782179e-06	1.080976e-09	2.587146e+01	1.355228e+02
2.700000e-06	4.826580e-06	1.089546e-09	2.611166e+01	1.365778e+02
2.710000e-06	4.870699e-06	1.097848e-09	2.635034e+01	1.376106e+02
2.720000e-06	4.914556e-06	1.107065e-09	2.658761e+01	1.386216e+02
2.730000e-06	4.958271e-06	1.116363e-09	2.682411e+01	1.396113e+02
2.740000e-06	5.001779e-06	1.124859e-09	2.705949e+01	1.405799e+02
2.750000e-06	5.044966e-06	1.132072e-09	2.729312e+01	1.415280e+02
2.760000e-06	5.087753e-06	1.138073e-09	2.752460e+01	1.424560e+02
2.770000e-06	5.130083e-06	1.144727e-09	2.775361e+01	1.433644e+02
2.780000e-06	5.171738e-06	1.153089e-09	2.797896e+01	1.442536e+02
2.790000e-06	5.212627e-06	1.161975e-09	2.820017e+01	1.451241e+02
2.800000e-06	5.253036e-06	1.170267e-09	2.841878e+01	1.459763e+02
2.810000e-06	5.293118e-06	1.178124e-09	2.863562e+01	1.468109e+02
2.820000e-06	5.332923e-06	1.185702e-09	2.885096e+01	1.476282e+02
2.830000e-06	5.372513e-06	1.193402e-09	2.906515e+01	1.484287e+02
2.840000e-06	5.411844e-06	1.201015e-09	2.927792e+01	1.492130e+02
2.850000e-06	5.450820e-06	1.207590e-09	2.948878e+01	1.499814e+02
2.860000e-06	5.489391e-06	1.212939e-09	2.969745e+01	1.507344e+02
2.870000e-06	5.527533e-06	1.218574e-09	2.990380e+01	1.514725e+02
2.880000e-06	5.565265e-06	1.225371e-09	3.010793e+01	1.521961e+02
2.890000e-06	5.602561e-06	1.232757e-09	3.030970e+01	1.529056e+02
2.900000e-06	5.639357e-06	1.239302e-09	3.050876e+01	1.536015e+02
