# Temperatura_=_20.0
# Concentracion g/m^3_=_7400.0
# C_Vs_to_Am_M_A/Vsm_=_116720831517.84952
# pendiente_HvsI_1/m_=_3716.3
# ordenada_HvsI_A/m_=_1297.0
# frecuencia_Hz_=_136119.0208786124

Tiempo_(s)	Campo_(V.s)	Magnetizacion_(V.s)	Campo_(kA/m)	Magnetizacion_(A/m)
0.000000e+00	-7.091542e-06	-1.229444e-09	-3.842633e+01	-1.419408e+02
1.000000e-08	-7.091747e-06	-1.229773e-09	-3.842744e+01	-1.419096e+02
2.000000e-08	-7.091480e-06	-1.230174e-09	-3.842599e+01	-1.418711e+02
3.000000e-08	-7.090581e-06	-1.229937e-09	-3.842112e+01	-1.418252e+02
4.000000e-08	-7.089020e-06	-1.229402e-09	-3.841267e+01	-1.417721e+02
5.000000e-08	-7.086791e-06	-1.228234e-09	-3.840059e+01	-1.417119e+02
6.000000e-08	-7.083976e-06	-1.226454e-09	-3.838534e+01	-1.416447e+02
7.000000e-08	-7.080674e-06	-1.221755e-09	-3.836744e+01	-1.415707e+02
8.000000e-08	-7.076799e-06	-1.219247e-09	-3.834644e+01	-1.414898e+02
9.000000e-08	-7.072370e-06	-1.236356e-09	-3.832245e+01	-1.414024e+02
1.000000e-07	-7.067392e-06	-1.249801e-09	-3.829547e+01	-1.413087e+02
1.100000e-07	-7.061737e-06	-1.202067e-09	-3.826483e+01	-1.412087e+02
1.200000e-07	-7.055638e-06	-1.166834e-09	-3.823178e+01	-1.411028e+02
1.300000e-07	-7.049334e-06	-1.236886e-09	-3.819762e+01	-1.409912e+02
1.400000e-07	-7.042687e-06	-1.290418e-09	-3.816160e+01	-1.408744e+02
1.500000e-07	-7.035663e-06	-1.194438e-09	-3.812355e+01	-1.407526e+02
1.600000e-07	-7.028171e-06	-1.125755e-09	-3.808295e+01	-1.406262e+02
1.700000e-07	-7.020229e-06	-1.247972e-09	-3.803992e+01	-1.404957e+02
1.800000e-07	-7.011682e-06	-1.314721e-09	-3.799360e+01	-1.403615e+02
1.900000e-07	-7.002385e-06	-1.159808e-09	-3.794322e+01	-1.402241e+02
2.000000e-07	-6.992517e-06	-1.086734e-09	-3.788976e+01	-1.400840e+02
2.100000e-07	-6.982041e-06	-1.258624e-09	-3.783299e+01	-1.399416e+02
2.200000e-07	-6.970956e-06	-1.313509e-09	-3.777292e+01	-1.397975e+02
2.300000e-07	-6.959364e-06	-1.138665e-09	-3.771011e+01	-1.396521e+02
2.400000e-07	-6.947169e-06	-1.108217e-09	-3.764403e+01	-1.395058e+02
2.500000e-07	-6.934413e-06	-1.263531e-09	-3.757491e+01	-1.393593e+02
2.600000e-07	-6.921146e-06	-1.243373e-09	-3.750302e+01	-1.392127e+02
2.700000e-07	-6.907221e-06	-1.108058e-09	-3.742757e+01	-1.390665e+02
2.800000e-07	-6.892735e-06	-1.165803e-09	-3.734907e+01	-1.389209e+02
2.900000e-07	-6.877637e-06	-1.252481e-09	-3.726726e+01	-1.387762e+02
3.000000e-07	-6.861880e-06	-1.159442e-09	-3.718188e+01	-1.386326e+02
3.100000e-07	-6.845564e-06	-1.127795e-09	-3.709347e+01	-1.384901e+02
3.200000e-07	-6.828735e-06	-1.234976e-09	-3.700228e+01	-1.383488e+02
3.300000e-07	-6.811581e-06	-1.190453e-09	-3.690933e+01	-1.382085e+02
3.400000e-07	-6.793974e-06	-1.082708e-09	-3.681392e+01	-1.380692e+02
3.500000e-07	-6.775687e-06	-1.179690e-09	-3.671483e+01	-1.379305e+02
3.600000e-07	-6.756961e-06	-1.252226e-09	-3.661336e+01	-1.377923e+02
3.700000e-07	-6.737859e-06	-1.115925e-09	-3.650986e+01	-1.376540e+02
3.800000e-07	-6.718359e-06	-1.089387e-09	-3.640420e+01	-1.375152e+02
3.900000e-07	-6.698489e-06	-1.222015e-09	-3.629653e+01	-1.373754e+02
4.000000e-07	-6.678189e-06	-1.189113e-09	-3.618653e+01	-1.372341e+02
4.100000e-07	-6.657356e-06	-1.086787e-09	-3.607364e+01	-1.370905e+02
4.200000e-07	-6.635935e-06	-1.158996e-09	-3.595757e+01	-1.369440e+02
4.300000e-07	-6.614143e-06	-1.202656e-09	-3.583949e+01	-1.367939e+02
4.400000e-07	-6.591920e-06	-1.117204e-09	-3.571907e+01	-1.366396e+02
4.500000e-07	-6.569063e-06	-1.129834e-09	-3.559522e+01	-1.364802e+02
4.600000e-07	-6.545816e-06	-1.188133e-09	-3.546925e+01	-1.363150e+02
4.700000e-07	-6.522362e-06	-1.125233e-09	-3.534217e+01	-1.361435e+02
4.800000e-07	-6.498594e-06	-1.101947e-09	-3.521338e+01	-1.359648e+02
4.900000e-07	-6.474342e-06	-1.173447e-09	-3.508197e+01	-1.357784e+02
5.000000e-07	-6.449571e-06	-1.152884e-09	-3.494774e+01	-1.355836e+02
5.100000e-07	-6.424028e-06	-1.097371e-09	-3.480933e+01	-1.353801e+02
5.200000e-07	-6.397581e-06	-1.136531e-09	-3.466603e+01	-1.351672e+02
5.300000e-07	-6.370571e-06	-1.150982e-09	-3.451967e+01	-1.349446e+02
5.400000e-07	-6.343194e-06	-1.105953e-09	-3.437132e+01	-1.347120e+02
5.500000e-07	-6.315545e-06	-1.116082e-09	-3.422150e+01	-1.344692e+02
5.600000e-07	-6.287525e-06	-1.137627e-09	-3.406968e+01	-1.342159e+02
5.700000e-07	-6.259146e-06	-1.111320e-09	-3.391590e+01	-1.339521e+02
5.800000e-07	-6.230317e-06	-1.110041e-09	-3.375969e+01	-1.336777e+02
5.900000e-07	-6.200995e-06	-1.126795e-09	-3.360080e+01	-1.333928e+02
6.000000e-07	-6.171337e-06	-1.107806e-09	-3.344010e+01	-1.330976e+02
6.100000e-07	-6.141289e-06	-1.097896e-09	-3.327728e+01	-1.327921e+02
6.200000e-07	-6.110771e-06	-1.109509e-09	-3.311191e+01	-1.324766e+02
6.300000e-07	-6.079827e-06	-1.103463e-09	-3.294424e+01	-1.321513e+02
6.400000e-07	-6.048562e-06	-1.097378e-09	-3.277483e+01	-1.318166e+02
6.500000e-07	-6.017015e-06	-1.102337e-09	-3.260389e+01	-1.314728e+02
6.600000e-07	-5.985165e-06	-1.095339e-09	-3.243130e+01	-1.311202e+02
6.700000e-07	-5.952913e-06	-1.089038e-09	-3.225654e+01	-1.307592e+02
6.800000e-07	-5.919948e-06	-1.090941e-09	-3.207791e+01	-1.303900e+02
6.900000e-07	-5.886124e-06	-1.084759e-09	-3.189463e+01	-1.300131e+02
7.000000e-07	-5.851691e-06	-1.079659e-09	-3.170806e+01	-1.296287e+02
7.100000e-07	-5.816812e-06	-1.080597e-09	-3.151906e+01	-1.292371e+02
7.200000e-07	-5.781619e-06	-1.073796e-09	-3.132837e+01	-1.288386e+02
7.300000e-07	-5.746250e-06	-1.068779e-09	-3.113671e+01	-1.284334e+02
7.400000e-07	-5.710536e-06	-1.070129e-09	-3.094319e+01	-1.280217e+02
7.500000e-07	-5.674405e-06	-1.064017e-09	-3.074741e+01	-1.276035e+02
7.600000e-07	-5.637912e-06	-1.055993e-09	-3.054967e+01	-1.271791e+02
7.700000e-07	-5.601018e-06	-1.056013e-09	-3.034975e+01	-1.267484e+02
7.800000e-07	-5.563666e-06	-1.053943e-09	-3.014736e+01	-1.263114e+02
7.900000e-07	-5.525786e-06	-1.046977e-09	-2.994211e+01	-1.258682e+02
8.000000e-07	-5.487467e-06	-1.041056e-09	-2.973447e+01	-1.254187e+02
8.100000e-07	-5.448775e-06	-1.034475e-09	-2.952481e+01	-1.249628e+02
8.200000e-07	-5.409614e-06	-1.028109e-09	-2.931261e+01	-1.245004e+02
8.300000e-07	-5.370145e-06	-1.024528e-09	-2.909874e+01	-1.240313e+02
8.400000e-07	-5.330491e-06	-1.021479e-09	-2.888387e+01	-1.235555e+02
8.500000e-07	-5.290675e-06	-1.016403e-09	-2.866813e+01	-1.230728e+02
8.600000e-07	-5.250631e-06	-1.011217e-09	-2.845114e+01	-1.225830e+02
8.700000e-07	-5.210201e-06	-1.006173e-09	-2.823207e+01	-1.220860e+02
8.800000e-07	-5.169260e-06	-1.000852e-09	-2.801023e+01	-1.215817e+02
8.900000e-07	-5.127607e-06	-9.933477e-10	-2.778452e+01	-1.210701e+02
9.000000e-07	-5.085257e-06	-9.844612e-10	-2.755504e+01	-1.205509e+02
9.100000e-07	-5.042350e-06	-9.784345e-10	-2.732255e+01	-1.200242e+02
9.200000e-07	-4.999067e-06	-9.748506e-10	-2.708802e+01	-1.194899e+02
9.300000e-07	-4.955584e-06	-9.701130e-10	-2.685240e+01	-1.189481e+02
9.400000e-07	-4.911934e-06	-9.636651e-10	-2.661588e+01	-1.183987e+02
9.500000e-07	-4.867995e-06	-9.565960e-10	-2.637779e+01	-1.178418e+02
9.600000e-07	-4.823749e-06	-9.502509e-10	-2.613804e+01	-1.172775e+02
9.700000e-07	-4.779181e-06	-9.448445e-10	-2.589654e+01	-1.167059e+02
9.800000e-07	-4.734240e-06	-9.397589e-10	-2.565302e+01	-1.161269e+02
9.900000e-07	-4.688950e-06	-9.339212e-10	-2.540761e+01	-1.155409e+02
1.000000e-06	-4.643363e-06	-9.278627e-10	-2.516060e+01	-1.149477e+02
1.010000e-06	-4.597476e-06	-9.232472e-10	-2.491195e+01	-1.143476e+02
1.020000e-06	-4.551281e-06	-9.189703e-10	-2.466164e+01	-1.137407e+02
1.030000e-06	-4.504626e-06	-9.129273e-10	-2.440883e+01	-1.131268e+02
1.040000e-06	-4.457639e-06	-9.060832e-10	-2.415423e+01	-1.125062e+02
1.050000e-06	-4.410571e-06	-9.014330e-10	-2.389918e+01	-1.118788e+02
1.060000e-06	-4.363284e-06	-8.984386e-10	-2.364296e+01	-1.112444e+02
1.070000e-06	-4.315681e-06	-8.950373e-10	-2.338501e+01	-1.106030e+02
1.080000e-06	-4.267839e-06	-8.900353e-10	-2.312577e+01	-1.099545e+02
1.090000e-06	-4.219741e-06	-8.832115e-10	-2.286515e+01	-1.092986e+02
1.100000e-06	-4.171235e-06	-8.765023e-10	-2.260231e+01	-1.086349e+02
1.110000e-06	-4.122158e-06	-8.713688e-10	-2.233638e+01	-1.079633e+02
1.120000e-06	-4.072357e-06	-8.664113e-10	-2.206653e+01	-1.072831e+02
1.130000e-06	-4.022123e-06	-8.610140e-10	-2.179434e+01	-1.065941e+02
1.140000e-06	-3.971699e-06	-8.552212e-10	-2.152111e+01	-1.058956e+02
1.150000e-06	-3.920871e-06	-8.497797e-10	-2.124569e+01	-1.051871e+02
1.160000e-06	-3.869631e-06	-8.446852e-10	-2.096804e+01	-1.044679e+02
1.170000e-06	-3.818150e-06	-8.381702e-10	-2.068908e+01	-1.037375e+02
1.180000e-06	-3.766435e-06	-8.310534e-10	-2.040886e+01	-1.029951e+02
1.190000e-06	-3.714433e-06	-8.253589e-10	-2.012708e+01	-1.022400e+02
1.200000e-06	-3.662162e-06	-8.204549e-10	-1.984384e+01	-1.014715e+02
1.210000e-06	-3.609506e-06	-8.152215e-10	-1.955852e+01	-1.006891e+02
1.220000e-06	-3.556455e-06	-8.087363e-10	-1.927106e+01	-9.989190e+01
1.230000e-06	-3.503217e-06	-8.009526e-10	-1.898258e+01	-9.907939e+01
1.240000e-06	-3.449787e-06	-7.929532e-10	-1.869307e+01	-9.825096e+01
1.250000e-06	-3.396152e-06	-7.867243e-10	-1.840244e+01	-9.740608e+01
1.260000e-06	-3.342255e-06	-7.817728e-10	-1.811039e+01	-9.654428e+01
1.270000e-06	-3.288076e-06	-7.743824e-10	-1.781682e+01	-9.566519e+01
1.280000e-06	-3.233687e-06	-7.649048e-10	-1.752210e+01	-9.476851e+01
1.290000e-06	-3.179069e-06	-7.569851e-10	-1.722615e+01	-9.385402e+01
1.300000e-06	-3.124257e-06	-7.506406e-10	-1.692915e+01	-9.292161e+01
1.310000e-06	-3.069214e-06	-7.431801e-10	-1.663089e+01	-9.197128e+01
1.320000e-06	-3.013936e-06	-7.348386e-10	-1.633136e+01	-9.100312e+01
1.330000e-06	-2.958473e-06	-7.266053e-10	-1.603083e+01	-9.001732e+01
1.340000e-06	-2.902934e-06	-7.184098e-10	-1.572988e+01	-8.901418e+01
1.350000e-06	-2.847363e-06	-7.107581e-10	-1.542876e+01	-8.799407e+01
1.360000e-06	-2.791733e-06	-7.031262e-10	-1.512732e+01	-8.695748e+01
1.370000e-06	-2.736038e-06	-6.943769e-10	-1.482554e+01	-8.590496e+01
1.380000e-06	-2.680182e-06	-6.853458e-10	-1.452287e+01	-8.483713e+01
1.390000e-06	-2.624064e-06	-6.771346e-10	-1.421879e+01	-8.375467e+01
1.400000e-06	-2.567625e-06	-6.694071e-10	-1.391297e+01	-8.265830e+01
1.410000e-06	-2.511015e-06	-6.600969e-10	-1.360622e+01	-8.154877e+01
1.420000e-06	-2.454330e-06	-6.498576e-10	-1.329907e+01	-8.042686e+01
1.430000e-06	-2.397356e-06	-6.406020e-10	-1.299035e+01	-7.929332e+01
1.440000e-06	-2.339902e-06	-6.317002e-10	-1.267903e+01	-7.814891e+01
1.450000e-06	-2.282206e-06	-6.220834e-10	-1.236639e+01	-7.699434e+01
1.460000e-06	-2.224440e-06	-6.115393e-10	-1.205338e+01	-7.583030e+01
1.470000e-06	-2.166359e-06	-6.008401e-10	-1.173866e+01	-7.465740e+01
1.480000e-06	-2.107865e-06	-5.901617e-10	-1.142171e+01	-7.347618e+01
1.490000e-06	-2.049164e-06	-5.798042e-10	-1.110363e+01	-7.228709e+01
1.500000e-06	-1.990330e-06	-5.699702e-10	-1.078483e+01	-7.109050e+01
1.510000e-06	-1.931321e-06	-5.594963e-10	-1.046508e+01	-6.988666e+01
1.520000e-06	-1.872175e-06	-5.484671e-10	-1.014459e+01	-6.867573e+01
1.530000e-06	-1.812920e-06	-5.390064e-10	-9.823512e+00	-6.745773e+01
1.540000e-06	-1.753567e-06	-5.300181e-10	-9.501903e+00	-6.623257e+01
1.550000e-06	-1.694157e-06	-5.195077e-10	-9.179985e+00	-6.500007e+01
1.560000e-06	-1.634683e-06	-5.082013e-10	-8.857715e+00	-6.375988e+01
1.570000e-06	-1.575134e-06	-4.970329e-10	-8.535043e+00	-6.251159e+01
1.580000e-06	-1.515552e-06	-4.866747e-10	-8.212193e+00	-6.125466e+01
1.590000e-06	-1.455902e-06	-4.760861e-10	-7.888972e+00	-5.998844e+01
1.600000e-06	-1.396222e-06	-4.644604e-10	-7.565586e+00	-5.871222e+01
1.610000e-06	-1.336491e-06	-4.530227e-10	-7.241928e+00	-5.742519e+01
1.620000e-06	-1.276652e-06	-4.420263e-10	-6.917685e+00	-5.612648e+01
1.630000e-06	-1.216701e-06	-4.314094e-10	-6.592836e+00	-5.481517e+01
1.640000e-06	-1.156708e-06	-4.205853e-10	-6.267757e+00	-5.349031e+01
1.650000e-06	-1.096643e-06	-4.090895e-10	-5.942284e+00	-5.215090e+01
1.660000e-06	-1.036396e-06	-3.977167e-10	-5.615829e+00	-5.079596e+01
1.670000e-06	-9.761600e-07	-3.863901e-10	-5.289435e+00	-4.942452e+01
1.680000e-06	-9.158805e-07	-3.748020e-10	-4.962803e+00	-4.803560e+01
1.690000e-06	-8.554584e-07	-3.623722e-10	-4.635399e+00	-4.662830e+01
1.700000e-06	-7.951028e-07	-3.499484e-10	-4.308356e+00	-4.520173e+01
1.710000e-06	-7.347280e-07	-3.391795e-10	-3.981208e+00	-4.375509e+01
1.720000e-06	-6.742155e-07	-3.287869e-10	-3.653314e+00	-4.228764e+01
1.730000e-06	-6.135848e-07	-3.175010e-10	-3.324780e+00	-4.079875e+01
1.740000e-06	-5.529290e-07	-3.054713e-10	-2.996109e+00	-3.928785e+01
1.750000e-06	-4.922800e-07	-2.929093e-10	-2.667476e+00	-3.775449e+01
1.760000e-06	-4.315208e-07	-2.798941e-10	-2.338245e+00	-3.619834e+01
1.770000e-06	-3.706593e-07	-2.664640e-10	-2.008460e+00	-3.461917e+01
1.780000e-06	-3.097566e-07	-2.529125e-10	-1.678452e+00	-3.301686e+01
1.790000e-06	-2.489001e-07	-2.396287e-10	-1.348693e+00	-3.139142e+01
1.800000e-06	-1.880733e-07	-2.261861e-10	-1.019097e+00	-2.974297e+01
1.810000e-06	-1.272262e-07	-2.126315e-10	-6.893895e-01	-2.807174e+01
1.820000e-06	-6.643804e-08	-1.997373e-10	-3.600021e-01	-2.637810e+01
1.830000e-06	-5.656215e-09	-1.863516e-10	-3.064885e-02	-2.466251e+01
1.840000e-06	5.512141e-08	-1.715553e-10	2.986817e-01	-2.292552e+01
1.850000e-06	1.158922e-07	-1.565548e-10	6.279752e-01	-2.116782e+01
1.860000e-06	1.766433e-07	-1.427719e-10	9.571619e-01	-1.939017e+01
1.870000e-06	2.373870e-07	-1.300630e-10	1.286308e+00	-1.759342e+01
1.880000e-06	2.982001e-07	-1.163422e-10	1.615831e+00	-1.577850e+01
1.890000e-06	3.589218e-07	-1.013243e-10	1.944859e+00	-1.394643e+01
1.900000e-06	4.196178e-07	-8.707602e-11	2.273747e+00	-1.209829e+01
1.910000e-06	4.803453e-07	-7.310972e-11	2.602806e+00	-1.023521e+01
1.920000e-06	5.410024e-07	-5.891052e-11	2.931484e+00	-8.358386e+00
1.930000e-06	6.015558e-07	-4.521837e-11	3.259599e+00	-6.469068e+00
1.940000e-06	6.619696e-07	-3.113822e-11	3.586958e+00	-4.568540e+00
1.950000e-06	7.224031e-07	-1.572481e-11	3.914424e+00	-2.658124e+00
1.960000e-06	7.829156e-07	-1.560889e-13	4.242318e+00	-7.391734e-01
1.970000e-06	8.434123e-07	1.457734e-11	4.570126e+00	1.186930e+00
1.980000e-06	9.038002e-07	2.859556e-11	4.897345e+00	3.118784e+00
1.990000e-06	9.641307e-07	4.201276e-11	5.224252e+00	5.054968e+00
2.000000e-06	1.024375e-06	5.560590e-11	5.550695e+00	6.994048e+00
2.010000e-06	1.084481e-06	7.003524e-11	5.876385e+00	8.934583e+00
2.020000e-06	1.144560e-06	8.520395e-11	6.201929e+00	1.087512e+01
2.030000e-06	1.204639e-06	1.016346e-10	6.527475e+00	1.281421e+01
2.040000e-06	1.264685e-06	1.180810e-10	6.852840e+00	1.475041e+01
2.050000e-06	1.324601e-06	1.325965e-10	7.177505e+00	1.668227e+01
2.060000e-06	1.384475e-06	1.460177e-10	7.501935e+00	1.860836e+01
2.070000e-06	1.444352e-06	1.602480e-10	7.826388e+00	2.052725e+01
2.080000e-06	1.504146e-06	1.755071e-10	8.150385e+00	2.243755e+01
2.090000e-06	1.563897e-06	1.902677e-10	8.474156e+00	2.433788e+01
2.100000e-06	1.623577e-06	2.044749e-10	8.797536e+00	2.622688e+01
2.110000e-06	1.683168e-06	2.193599e-10	9.120437e+00	2.810325e+01
2.120000e-06	1.742621e-06	2.343325e-10	9.442593e+00	2.996571e+01
2.130000e-06	1.801937e-06	2.485334e-10	9.764001e+00	3.181302e+01
2.140000e-06	1.861183e-06	2.621951e-10	1.008503e+01	3.364402e+01
2.150000e-06	1.920416e-06	2.756681e-10	1.040599e+01	3.545757e+01
2.160000e-06	1.979608e-06	2.900286e-10	1.072673e+01	3.725262e+01
2.170000e-06	2.038574e-06	3.051316e-10	1.104625e+01	3.902818e+01
2.180000e-06	2.097226e-06	3.195896e-10	1.136406e+01	4.078336e+01
2.190000e-06	2.155560e-06	3.327538e-10	1.168015e+01	4.251731e+01
2.200000e-06	2.213602e-06	3.456425e-10	1.199466e+01	4.422930e+01
2.210000e-06	2.271284e-06	3.591770e-10	1.230721e+01	4.591868e+01
2.220000e-06	2.328686e-06	3.731169e-10	1.261825e+01	4.758490e+01
2.230000e-06	2.385943e-06	3.867152e-10	1.292850e+01	4.922750e+01
2.240000e-06	2.442952e-06	4.000990e-10	1.323741e+01	5.084614e+01
2.250000e-06	2.499669e-06	4.136981e-10	1.354474e+01	5.244056e+01
2.260000e-06	2.556056e-06	4.264707e-10	1.385028e+01	5.401063e+01
2.270000e-06	2.612229e-06	4.384176e-10	1.415466e+01	5.555628e+01
2.280000e-06	2.668353e-06	4.504542e-10	1.445878e+01	5.707759e+01
2.290000e-06	2.724321e-06	4.622893e-10	1.476204e+01	5.857469e+01
2.300000e-06	2.780084e-06	4.735861e-10	1.506420e+01	6.004784e+01
2.310000e-06	2.835760e-06	4.857853e-10	1.536589e+01	6.149736e+01
2.320000e-06	2.891272e-06	4.996799e-10	1.566669e+01	6.292366e+01
2.330000e-06	2.946522e-06	5.141400e-10	1.596607e+01	6.432722e+01
2.340000e-06	3.001596e-06	5.263457e-10	1.626449e+01	6.570859e+01
2.350000e-06	3.056454e-06	5.362067e-10	1.656175e+01	6.706836e+01
2.360000e-06	3.111054e-06	5.450040e-10	1.685760e+01	6.840718e+01
2.370000e-06	3.165456e-06	5.529303e-10	1.715238e+01	6.972574e+01
2.380000e-06	3.219709e-06	5.611750e-10	1.744636e+01	7.102473e+01
2.390000e-06	3.273749e-06	5.709691e-10	1.773918e+01	7.230487e+01
2.400000e-06	3.327556e-06	5.829204e-10	1.803074e+01	7.356689e+01
2.410000e-06	3.381214e-06	5.950855e-10	1.832150e+01	7.481150e+01
2.420000e-06	3.434755e-06	6.063589e-10	1.861161e+01	7.603941e+01
2.430000e-06	3.488087e-06	6.170156e-10	1.890060e+01	7.725128e+01
2.440000e-06	3.541112e-06	6.271490e-10	1.918792e+01	7.844777e+01
2.450000e-06	3.593854e-06	6.368849e-10	1.947371e+01	7.962948e+01
2.460000e-06	3.646352e-06	6.458509e-10	1.975818e+01	8.079697e+01
2.470000e-06	3.698599e-06	6.545041e-10	2.004128e+01	8.195075e+01
2.480000e-06	3.750492e-06	6.630085e-10	2.032247e+01	8.309127e+01
2.490000e-06	3.801992e-06	6.714956e-10	2.060153e+01	8.421894e+01
2.500000e-06	3.853190e-06	6.799598e-10	2.087895e+01	8.533408e+01
2.510000e-06	3.904083e-06	6.882251e-10	2.115472e+01	8.643699e+01
2.520000e-06	3.954723e-06	6.971305e-10	2.142912e+01	8.752787e+01
2.530000e-06	4.005003e-06	7.060813e-10	2.170157e+01	8.860691e+01
2.540000e-06	4.054659e-06	7.142283e-10	2.197063e+01	8.967421e+01
2.550000e-06	4.103761e-06	7.215918e-10	2.223670e+01	9.072983e+01
2.560000e-06	4.152508e-06	7.284695e-10	2.250084e+01	9.177379e+01
2.570000e-06	4.200918e-06	7.353978e-10	2.276316e+01	9.280608e+01
2.580000e-06	4.248984e-06	7.433808e-10	2.302361e+01	9.382663e+01
2.590000e-06	4.296784e-06	7.518909e-10	2.328262e+01	9.483536e+01
2.600000e-06	4.344349e-06	7.605380e-10	2.354035e+01	9.583218e+01
2.610000e-06	4.391837e-06	7.692369e-10	2.379767e+01	9.681694e+01
2.620000e-06	4.439121e-06	7.763104e-10	2.405388e+01	9.778953e+01
2.630000e-06	4.485896e-06	7.827130e-10	2.430734e+01	9.874980e+01
2.640000e-06	4.532220e-06	7.899414e-10	2.455835e+01	9.969761e+01
2.650000e-06	4.578231e-06	7.976557e-10	2.480767e+01	1.006328e+02
2.660000e-06	4.623975e-06	8.052115e-10	2.505554e+01	1.015553e+02
2.670000e-06	4.669462e-06	8.121311e-10	2.530201e+01	1.024650e+02
2.680000e-06	4.714654e-06	8.183626e-10	2.554689e+01	1.033617e+02
2.690000e-06	4.759549e-06	8.244782e-10	2.579016e+01	1.042454e+02
2.700000e-06	4.804183e-06	8.305682e-10	2.603202e+01	1.051160e+02
2.710000e-06	4.848514e-06	8.363860e-10	2.627223e+01	1.059734e+02
2.720000e-06	4.892450e-06	8.437957e-10	2.651030e+01	1.068177e+02
2.730000e-06	4.936115e-06	8.529469e-10	2.674690e+01	1.076487e+02
2.740000e-06	4.979581e-06	8.617554e-10	2.698243e+01	1.084665e+02
2.750000e-06	5.022725e-06	8.695959e-10	2.721621e+01	1.092710e+02
2.760000e-06	5.065576e-06	8.764834e-10	2.744840e+01	1.100624e+02
2.770000e-06	5.108004e-06	8.822334e-10	2.767830e+01	1.108404e+02
2.780000e-06	5.149713e-06	8.881471e-10	2.790431e+01	1.116053e+02
2.790000e-06	5.190738e-06	8.949893e-10	2.812661e+01	1.123570e+02
2.800000e-06	5.231277e-06	9.018816e-10	2.834627e+01	1.130955e+02
2.810000e-06	5.271430e-06	9.094345e-10	2.856385e+01	1.138208e+02
2.820000e-06	5.311271e-06	9.174166e-10	2.877973e+01	1.145330e+02
2.830000e-06	5.350788e-06	9.246580e-10	2.899385e+01	1.152320e+02
2.840000e-06	5.389962e-06	9.315537e-10	2.920612e+01	1.159178e+02
2.850000e-06	5.428774e-06	9.380573e-10	2.941644e+01	1.165905e+02
2.860000e-06	5.467275e-06	9.436446e-10	2.962505e+01	1.172499e+02
2.870000e-06	5.505547e-06	9.488908e-10	2.983244e+01	1.178961e+02
2.880000e-06	5.543450e-06	9.548268e-10	3.003782e+01	1.185292e+02
2.890000e-06	5.580754e-06	9.610561e-10	3.023996e+01	1.191489e+02
2.900000e-06	5.617588e-06	9.668480e-10	3.043955e+01	1.197555e+02
